Time (s),ECG Signal (mV)
0.0,59.41736912579017
0.00400026668444563,60.686071478755466
0.00800053336889126,62.397877975663114
0.01200080005333689,63.829788871465524
0.01600106673778252,63.570570621002645
0.02000133342222815,65.24365036177178
0.02400160010667378,67.96287402501588
0.02800186679111941,68.30127389539024
0.03200213347556504,68.82512287507167
0.03600240016001067,69.94440885673144
0.0400026668444563,71.22626655457312
0.04400293352890193,72.6203403251431
0.04800320021334756,74.48837483879439
0.05200346689779319,75.81687716979918
0.05600373358223882,76.64140678708054
0.060004000266684454,78.787345510701
0.06400426695113008,77.71948171716511
0.06800453363557571,79.86086189683215
0.07200480032002134,80.85520800475797
0.07600506700446698,81.34808487532182
0.0800053336889126,82.52421614405597
0.08400560037335823,83.72865211972425
0.08800586705780386,84.07619900891514
0.09200613374224949,85.63024808057622
0.09600640042669512,86.92488855758542
0.10000666711114076,87.142809191108
0.10400693379558638,89.23848289825527
0.10800720048003201,88.51987806280658
0.11200746716447764,89.79285614327725
0.11600773384892327,91.09815182681066
0.12000800053336891,90.75402228429152
0.12400826721781454,92.00890605376453
0.12800853390226016,93.1347502500704
0.1320088005867058,93.56982190002003
0.13600906727115142,94.44146984383539
0.14000933395559706,94.7757829702717
0.14400960064004267,96.23164022535012
0.14800986732448831,95.86096611039879
0.15201013400893396,96.61558256524302
0.15601040069337957,97.47515194240673
0.1600106673778252,97.194238642703
0.16401093406227082,98.92861735303858
0.16801120074671647,98.13905235608942
0.1720114674311621,99.63679253058817
0.17601173411560772,99.0720712526251
0.18001200080005336,99.49559817519895
0.18401226748449898,99.43659590636656
0.18801253416894462,98.6594380816365
0.19201280085339023,99.30508405571823
0.19601306753783587,99.98819204902439
0.2000133342222815,101.0394113674057
0.20401360090672713,99.08025878237581
0.20801386759117277,99.63606874729999
0.21201413427561838,100.28827329237018
0.21601440096006402,99.96454216207786
0.22001466764450966,99.60188167156898
0.22401493432895528,100.6003712267582
0.22801520101340092,99.73532784138838
0.23201546769784653,99.88845023264358
0.23601573438229217,98.81621326434913
0.24001600106673782,99.27775754009487
0.24401626775118343,98.87713319672213
0.24801653443562907,98.42619529199841
0.2520168011200747,97.97241624952291
0.2560170678045203,98.40800457944692
0.26001733448896597,96.8970257056658
0.2640176011734116,95.8342400655272
0.2680178678578572,96.90981892734776
0.27201813454230284,95.35966551917662
0.2760184012267485,94.0390250165542
0.2800186679111941,93.63394560608467
0.28401893459563976,92.88287936314296
0.28801920128008535,92.806046450856
0.292019467964531,92.03726192329769
0.29601973464897663,91.07559942922498
0.30002000133342227,90.31310263821206
0.3040202680178679,89.32094720116535
0.3080205347023135,89.71841241349453
0.31202080138675914,88.87372699113249
0.3160210680712048,88.06592828395667
0.3200213347556504,87.1655579261164
0.32402160144009606,85.68983896461556
0.32802186812454165,85.27501456140709
0.3320221348089873,84.50569942786177
0.33602240149343293,83.61599355538429
0.3400226681778786,81.9320146640108
0.3440229348623242,81.77096706655523
0.3480232015467698,80.32861034138843
0.35202346823121544,79.60105697836188
0.3560237349156611,78.07587026160083
0.3600240016001067,76.97002260995579
0.36402426828455237,75.53959264859279
0.36802453496899795,74.77003661914678
0.3720248016534436,73.40188309000528
0.37602506833788923,71.98063595472647
0.3800253350223349,71.24889174183926
0.38402560170678046,69.19019173151267
0.3880258683912261,68.39657962724036
0.39202613507567174,66.7387462296396
0.3960264017601174,66.19870968544123
0.400026668444563,65.48634823662185
0.4040269351290086,63.309631595510375
0.40802720181345425,62.424266348575834
0.4120274684978999,61.734864166034505
0.41602773518234554,60.041937211565994
0.4200280018667912,58.39653374992249
0.42402826855123676,57.71130043291297
0.4280285352356824,57.300724242684026
0.43202880192012805,55.67213620965028
0.4360290686045737,54.067060446510204
0.44002933528901933,52.35040296110997
0.4440296019734649,51.59663653181024
0.44802986865791056,50.9581900563327
0.4520301353423562,49.39666451829622
0.45603040202680184,48.515899597544774
0.4600306687112475,46.85444326424898
0.46403093539569307,46.60008713902181
0.4680312020801387,45.30468612813177
0.47203146876458435,44.105471616807165
0.47603173544903,42.91095954449437
0.48003200213347563,41.231094224472336
0.4840322688179212,40.128179269061086
0.48803253550236686,40.424894705653415
0.4920328021868125,37.863633454371495
0.49603306887125814,37.64645812185872
0.5000333355557037,35.944554200764614
0.5040336022401494,35.448839337969225
0.508033868924595,34.999838324296206
0.5120341356090407,34.418468453634624
0.5160344022934863,32.94901492207367
0.5200346689779319,31.491704788447368
0.5240349356623776,31.92279285100469
0.5280352023468232,30.588493008885223
0.5320354690312687,29.0555383784247
0.5360357357157144,28.39604608999584
0.54003600240016,28.880795990742335
0.5440362690846057,27.06294562114825
0.5480365357690513,25.83973631552231
0.552036802453497,25.482865787725036
0.5560370691379426,24.96363298026532
0.5600373358223882,24.460991136430323
0.5640376025068339,24.288945758875283
0.5680378691912795,23.853918035139383
0.572038135875725,22.98826766996587
0.5760384025601707,23.109563837937497
0.5800386692446163,23.072803268696582
0.584038935929062,22.752946232540985
0.5880392026135076,21.355696943139048
0.5920394692979533,21.320431180886704
0.5960397359823989,20.919833054155593
0.6000400026668445,20.597793246327587
0.6040402693512902,21.227514895472797
0.6080405360357358,19.867587426412744
0.6120408027201814,19.56200616135777
0.616041069404627,19.970118159797764
0.6200413360890726,20.379143585601238
0.6240416027735183,20.564036430938774
0.6280418694579639,19.615185048332464
0.6320421361424096,20.56589243119595
0.6360424028268552,20.23011577945913
0.6400426695113008,19.909582805750897
0.6440429361957465,20.329638488319414
0.6480432028801921,19.727739119387188
0.6520434695646377,20.35135843310093
0.6560437362490833,20.745405706169862
0.6600440029335289,21.918410979352977
0.6640442696179746,21.886605141560832
0.6680445363024202,23.041480927406422
0.6720448029868659,22.571037529329548
0.6760450696713115,23.35893475706085
0.6800453363557571,23.896983913518774
0.6840456030402028,24.571203263440488
0.6880458697246484,25.28360966912472
0.692046136409094,24.934482109837695
0.6960464030935396,25.75689998028087
0.7000466697779852,26.859083924146315
0.7040469364624309,26.86270401971753
0.7080472031468765,28.098106407955672
0.7120474698313222,28.314867686997626
0.7160477365157678,28.230488348769835
0.7200480032002134,28.94779609096796
0.7240482698846591,30.47170550280925
0.7280485365691047,31.806933744959576
0.7320488032535503,31.91446713035149
0.7360490699379959,32.736744703685524
0.7400493366224415,33.19301790957267
0.7440496033068872,35.11793623696584
0.7480498699913328,35.77815943470645
0.7520501366757785,36.047324220446264
0.7560504033602241,38.41908006133084
0.7600506700446698,38.55301200520038
0.7640509367291154,40.30970504110735
0.7680512034135609,41.120772736876255
0.7720514700980066,41.27371883384758
0.7760517367824522,43.69627408971062
0.7800520034668978,44.25715563696159
0.7840522701513435,45.907680059380034
0.7880525368357891,46.58480225281605
0.7920528035202348,47.63064555668564
0.7960530702046804,49.56415010369368
0.800053336889126,49.90099197193169
0.8040536035735717,51.56314012872172
0.8080538702580172,52.2087408351242
0.8120541369424629,53.784120282874575
0.8160544036269085,54.9688502961383
0.8200546703113542,56.691328299450674
0.8240549369957998,57.24849635430736
0.8280552036802454,59.563665728769706
0.8320554703646911,59.05129812814645
0.8360557370491367,60.550850970229114
0.8400560037335824,61.850060228772826
0.844056270418028,63.02587536310331
0.8480565371024735,64.19470245935406
0.8520568037869192,64.80470557164215
0.8560570704713648,66.70113816952939
0.8600573371558105,69.00806447079039
0.8640576038402561,69.13985043206227
0.8680578705247017,69.5412731176358
0.8720581372091474,71.72338776013054
0.876058403893593,72.62459088773015
0.8800586705780387,73.43940078595726
0.8840589372624843,74.40509326559106
0.8880592039469298,76.61419136552479
0.8920594706313755,77.81034422480982
0.8960597373158211,78.79285237545356
0.9000600040002668,78.44908365059264
0.9040602706847124,80.13882672226117
0.908060537369158,81.25989245782084
0.9120608040536037,81.96316393571864
0.9160610707380493,83.16489582265598
0.920061337422495,84.10299382270279
0.9240616041069406,85.94206977628106
0.9280618707913861,85.13750908675611
0.9320621374758318,86.26960160167329
0.9360624041602774,88.73903168163581
0.9400626708447231,89.55154748839304
0.9440629375291687,89.31511430110004
0.9480632042136143,90.89893155945836
0.95206347089806,92.43828728986571
0.9560637375825056,91.82381199552673
0.9600640042669513,92.82708392490223
0.9640642709513969,93.40403190300827
0.9680645376358424,94.97109293473706
0.9720648043202881,93.92379279776326
0.9760650710047337,96.00665775563193
0.9800653376891794,95.66973422150427
0.984065604373625,95.69482577880005
0.9880658710580706,96.53105086789779
0.9920661377425163,97.4583073783385
0.9960664044269619,96.42173710741591
1.0000666711114075,98.60409971001673
1.004066937795853,98.6635850418699
1.0080672044802987,99.53476815203629
1.0120674711647444,99.16965439640501
1.01606773784919,99.1975458511692
1.0200680045336357,100.05153215576398
1.0240682712180813,100.31911674679031
1.028068537902527,100.19322884332118
1.0320688045869726,99.80034949544574
1.0360690712714182,99.96203772489014
1.0400693379558639,100.09423396663027
1.0440696046403095,100.27433884837183
1.0480698713247552,100.9296776297307
1.0520701380092008,98.8152365625944
1.0560704046936464,99.70213481880951
1.060070671378092,99.26832901666674
1.0640709380625375,98.31251651613324
1.0680712047469831,99.09826195485158
1.0720714714314288,99.34346332300746
1.0760717381158744,98.71564932769043
1.08007200480032,99.01457446657476
1.0840722714847657,98.25092470332957
1.0880725381692113,97.98777093534787
1.092072804853657,97.65031373630403
1.0960730715381026,97.11664363094961
1.1000733382225483,95.22685437827829
1.104073604906994,95.36058029741012
1.1080738715914396,94.92159635335867
1.1120741382758852,94.72272781852857
1.1160744049603308,92.95348489227419
1.1200746716447765,92.8344615592877
1.1240749383292221,92.58486176369037
1.1280752050136678,91.95751405696129
1.1320754716981134,91.51962451732838
1.136075738382559,90.19922810635694
1.1400760050670047,90.62719938618967
1.14407627175145,87.93443462886414
1.1480765384358957,87.23969284120713
1.1520768051203414,86.69016174386576
1.156077071804787,85.44576677884852
1.1600773384892327,85.40646549363687
1.1640776051736783,84.67575629830188
1.168077871858124,82.66851658121324
1.1720781385425696,82.11712477363587
1.1760784052270152,80.63108111433108
1.1800786719114609,79.82482363801937
1.1840789385959065,79.25098385186752
1.1880792052803522,77.06929885713767
1.1920794719647978,76.70005972220243
1.1960797386492434,75.89800675816885
1.200080005333689,74.66513003803186
1.2040802720181347,72.98964849508988
1.2080805387025804,72.33093524185551
1.212080805387026,71.65284709060131
1.2160810720714716,70.37989192221656
1.2200813387559173,69.48758365165561
1.2240816054403627,68.71980117519904
1.2280818721248083,66.63720417344202
1.232082138809254,65.42505150015747
1.2360824054936996,64.83795322301935
1.2400826721781453,63.34311783640498
1.244082938862591,62.90289006806182
1.2480832055470366,60.4379740393872
1.2520834722314822,59.41906356832252
1.2560837389159278,58.09372788229779
1.2600840056003735,57.47197436539492
1.2640842722848191,55.19435752071765
1.2680845389692648,54.01665298499762
1.2720848056537104,52.69893515709712
1.276085072338156,52.50578143698775
1.2800853390226017,51.20009931422388
1.2840856057070473,49.725458142173984
1.288085872391493,48.5781212627659
1.2920861390759386,47.760140821267115
1.2960864057603843,45.933993586252804
1.3000866724448297,44.936671121899245
1.3040869391292753,44.38971228228624
1.308087205813721,42.36246904490613
1.3120874724981666,42.02935480228056
1.3160877391826122,41.444380696749064
1.3200880058670579,40.268473722217784
1.3240882725515035,38.81100800995265
1.3280885392359492,38.2012047182234
1.3320888059203948,36.66918510237047
1.3360890726048404,36.12694889679899
1.340089339289286,34.543073364794736
1.3440896059737317,34.32475396996365
1.3480898726581774,33.75235144779326
1.352090139342623,32.24351207893148
1.3560904060270687,30.977059384464425
1.3600906727115143,30.397645424119677
1.36409093939596,29.3279049614251
1.3680912060804056,29.80823290967245
1.3720914727648512,27.916445675822565
1.3760917394492969,28.06752203716476
1.3800920061337423,26.88748598416565
1.384092272818188,26.663180443929566
1.3880925395026336,25.143153555688457
1.3920928061870792,24.499100532953147
1.3960930728715248,24.08911702330943
1.4000933395559705,23.53880878867833
1.4040936062404161,23.635552621491893
1.4080938729248618,23.348949023657998
1.4120941396093074,21.441340647636885
1.416094406293753,22.509983331082168
1.4200946729781987,22.080530143888236
1.4240949396626443,21.46594617614308
1.42809520634709,20.83017721706019
1.4320954730315356,20.916522674783824
1.4360957397159813,20.412471190349024
1.440096006400427,20.34355730640002
1.4440962730848725,19.85251721383396
1.4480965397693182,20.74267029556449
1.4520968064537638,21.06171660610407
1.4560970731382095,20.090245152501964
1.4600973398226549,20.638308333783694
1.4640976065071005,20.066759678700336
1.4680978731915462,20.409187942846195
1.4720981398759918,20.614666680300452
1.4760984065604374,20.02376788794908
1.480098673244883,20.822918539085336
1.4840989399293287,21.265318742197604
1.4880992066137744,21.161719539647798
1.49209947329822,20.797201431314637
1.4960997399826657,21.463871856984024
1.5001000066671113,21.217060864059366
1.504100273351557,21.93581161383973
1.5081005400360026,22.375858487864548
1.5121008067204482,22.347989260764244
1.5161010734048939,23.81189435040407
1.5201013400893395,24.346432682921563
1.5241016067737851,24.584947176190298
1.5281018734582308,25.96143683735182
1.5321021401426764,26.57242834916675
1.5361024068271218,26.63843713813777
1.5401026735115675,26.578017195996885
1.5441029401960131,28.325835034946756
1.5481032068804588,29.054108311992945
1.5521034735649044,29.079221647866746
1.55610374024935,30.438123429972197
1.5601040069337957,30.91925471069077
1.5641042736182413,32.68102188516646
1.568104540302687,33.650417813484665
1.5721048069871326,33.80799840294976
1.5761050736715783,34.75989589765196
1.580105340356024,36.20739787384901
1.5841056070404695,36.74967413193457
1.5881058737249152,37.84830928551646
1.5921061404093608,37.9451725801337
1.5961064070938065,40.06908009094072
1.600106673778252,40.67160494623655
1.6041069404626978,41.8705243796232
1.6081072071471434,42.15416398441012
1.612107473831589,44.071833178881214
1.6161077405160345,45.79103975073221
1.62010800720048,46.874708850271844
1.6241082738849257,47.35870856617046
1.6281085405693714,47.95680344507684
1.632108807253817,48.54159227494608
1.6361090739382627,50.88423100011267
1.6401093406227083,51.32407540073317
1.644109607307154,53.5473759387323
1.6481098739915996,55.12511182788879
1.6521101406760452,55.806595109197666
1.6561104073604909,56.86342472516135
1.6601106740449365,58.238277163022275
1.6641109407293821,59.86384127623189
1.6681112074138278,61.042934171100924
1.6721114740982734,61.34096897269743
1.676111740782719,62.20826172416354
1.6801120074671647,64.07826661074078
1.6841122741516104,65.32502928952648
1.688112540836056,65.94162706802524
1.6921128075205016,66.94069259249976
1.696113074204947,68.86960136083938
1.7001133408893927,69.61598787168751
1.7041136075738383,70.1226539510973
1.708113874258284,72.74343639623042
1.7121141409427296,73.75784157966187
1.7161144076271753,74.87849531694094
1.720114674311621,75.75261099826457
1.7241149409960665,76.468712121673
1.7281152076805122,76.63609426647311
1.7321154743649578,79.15253054446327
1.7361157410494035,80.62599176199292
1.7401160077338491,81.47380475661818
1.7441162744182948,82.06064080526443
1.7481165411027404,84.25347793218792
1.752116807787186,84.72888027209848
1.7561170744716317,84.60028447932059
1.7601173411560773,85.41032547221629
1.764117607840523,86.57880687815309
1.7681178745249686,86.93217503647574
1.7721181412094142,87.7971361793318
1.7761184078938597,88.78318868425974
1.7801186745783053,89.39081161488822
1.784118941262751,90.78920894651279
1.7881192079471966,91.99217273468906
1.7921194746316422,92.99088602674698
1.7961197413160879,93.02037153746609
1.8001200080005335,94.41762700185468
1.8041202746849792,94.28834386566504
1.8081205413694248,95.10008966473922
1.8121208080538704,95.32081357633496
1.816121074738316,96.92225921521934
1.8201213414227617,95.79704947298073
1.8241216081072074,97.14602731990121
1.828121874791653,96.8257707997597
1.8321221414760986,98.16329761544125
1.8361224081605443,98.68369701498139
1.84012267484499,98.61982077267736
1.8441229415294356,98.68352505589938
1.8481232082138812,98.74325259925304
1.8521234748983266,99.80960891304277
1.8561237415827723,100.57669767787233
1.860124008267218,99.68377069448681
1.8641242749516636,100.21294632111602
1.8681245416361092,99.11693909860443
1.8721248083205548,99.38576347698363
1.8761250750050005,100.54308586648037
1.8801253416894461,99.7033383099202
1.8841256083738918,99.65437544539623
1.8881258750583374,98.9249858651425
1.892126141742783,99.76020449070731
1.8961264084272287,99.28136650793128
1.9001266751116743,99.08217149965895
1.90412694179612,99.20861504120069
1.9081272084805656,99.39526396894566
1.9121274751650112,98.3788856907445
1.916127741849457,98.17791667756498
1.9201280085339025,97.89625755237066
1.9241282752183482,97.1672743793213
1.9281285419027938,97.47108898819671
1.9321288085872392,96.40616316206932
1.9361290752716849,95.75940641389366
1.9401293419561305,95.99432354401794
1.9441296086405762,95.25584824618213
1.9481298753250218,94.36373860111404
1.9521301420094674,93.56745434217422
1.956130408693913,92.7106901357216
1.9601306753783587,91.56515854353087
1.9641309420628044,91.43843623201045
1.96813120874725,90.13678308882001
1.9721314754316956,89.34318426581171
1.9761317421161413,89.30990302025923
1.980132008800587,87.04286585559692
1.9841322754850326,87.10480537140805
1.9881325421694782,85.69588761063468
1.9921328088539239,85.55929014184542
1.9961330755383695,84.231169477167
2.000133342222815,84.30421070466005
2.0041336089072606,82.24272459703175
2.008133875591706,81.22793929152532
2.012134142276152,79.75013904197081
2.0161344089605975,79.6477929917616
2.020134675645043,78.63849610156153
2.0241349423294888,77.9023184244064
2.0281352090139344,75.78782213265058
2.03213547569838,74.87269087484333
2.0361357423828257,74.17923811935712
2.0401360090672713,73.02859184113824
2.044136275751717,72.11958971007259
2.0481365424361626,70.69362168290124
2.0521368091206083,68.57415185230869
2.056137075805054,68.04828956765749
2.0601373424894995,66.41934289020585
2.064137609173945,64.95001933651423
2.068137875858391,64.40835214179144
2.0721381425428365,63.44364765842216
2.076138409227282,62.14098977091065
2.0801386759117277,60.94800730100503
2.0841389425961734,58.886193150824035
2.088139209280619,58.26286904983967
2.0921394759650647,57.425116333827106
2.0961397426495103,56.193488555627425
2.100140009333956,54.983063110327514
2.1041402760184016,54.88679141934476
2.1081405427028472,52.05475330078044
2.112140809387293,50.93183003125273
2.1161410760717385,50.16457762537531
2.120141342756184,49.1412021874419
2.12414160944063,48.34907512038594
2.128141876125075,47.66454381007718
2.1321421428095206,45.18048430153403
2.1361424094939663,43.60306509279496
2.140142676178412,43.169096409131846
2.1441429428628576,42.68180728887053
2.148143209547303,40.92615135123624
2.152143476231749,40.4028678861511
2.1561437429161945,38.420828402790335
2.16014400960064,38.63560400655684
2.1641442762850858,36.79786777662614
2.1681445429695314,35.98318962849856
2.172144809653977,36.038620585481695
2.1761450763384227,34.935783376535085
2.1801453430228683,33.37395092187294
2.184145609707314,31.324059479607005
2.1881458763917596,31.455997829729736
2.1921461430762053,30.533699959510372
2.196146409760651,29.700036765935494
2.2001466764450965,29.359482042810654
2.204146943129542,28.393994886983027
2.208147209813988,27.48307366945604
2.2121474764984335,27.009003494241796
2.216147743182879,25.631287138368883
2.2201480098673247,25.82606589730484
2.2241482765517704,25.079918065602545
2.228148543236216,24.848534774311556
2.2321488099206617,24.222608485129737
2.2361490766051073,22.989427193648613
2.240149343289553,23.1552139000339
2.2441496099739986,22.225590292417845
2.2481498766584442,22.599315138962734
2.25215014334289,20.99886830147759
2.2561504100273355,21.637956797605675
2.260150676711781,21.04759227066857
2.264150943396227,21.225383401382047
2.2681512100806724,20.24934064516437
2.272151476765118,20.283017433960868
2.2761517434495637,20.401334530146706
2.2801520101340094,20.055888005457266
2.284152276818455,19.569666059375695
2.2881525435029,19.915574741444956
2.292152810187346,20.150179460894446
2.2961530768717915,20.03487671769611
2.300153343556237,19.084190579711077
2.3041536102406828,19.78167979198266
2.3081538769251284,21.149016858015052
2.312154143609574,20.53494966808049
2.3161544102940197,20.864403263796103
2.3201546769784653,22.23344770268268
2.324154943662911,21.62738762218792
2.3281552103473566,21.29807936970346
2.3321554770318023,21.78965395855482
2.336155743716248,21.600710675270662
2.3401560104006935,23.01606190289444
2.344156277085139,22.84655474831326
2.348156543769585,23.63353758822676
2.3521568104540305,24.74647050377455
2.356157077138476,24.006018849860656
2.3601573438229217,25.303969977093693
2.3641576105073674,26.875446983390837
2.368157877191813,26.34906728729089
2.3721581438762587,27.284834615178426
2.3761584105607043,27.16601065785151
2.38015867724515,28.05610755516105
2.3841589439295956,28.639577274970897
2.3881592106140412,30.53629186943845
2.392159477298487,31.13673661337941
2.3961597439829325,32.00859815073254
2.400160010667378,31.8805222370247
2.404160277351824,32.94267448553543
2.4081605440362694,34.256946484543754
2.412160810720715,35.67411086074674
2.4161610774051607,36.56182467431589
2.4201613440896064,36.78990718995377
2.424161610774052,38.0190084303344
2.4281618774584977,40.145673016132044
2.4321621441429433,41.31059844414838
2.436162410827389,41.38873001485863
2.4401626775118346,42.910442626102224
2.4441629441962798,43.65402734252352
2.4481632108807254,44.47927563341289
2.452163477565171,46.05928582984782
2.4561637442496167,46.707185723237615
2.4601640109340623,47.402915074596194
2.464164277618508,49.92441243293047
2.4681645443029536,51.30989507394853
2.4721648109873993,51.616264847157765
2.476165077671845,52.48792247083467
2.4801653443562905,54.82889781357012
2.484165611040736,55.29302492317695
2.488165877725182,56.13166591510778
2.4921661444096275,57.600708326448505
2.496166411094073,59.0578492600507
2.5001666777785188,60.13857578930338
2.5041669444629644,61.29346697616994
2.50816721114741,62.882872342287385
2.5121674778318557,63.58531691625776
2.5161677445163013,63.84250200632318
2.520168011200747,65.15150687478402
2.5241682778851926,67.24235274376821
2.5281685445696382,68.88756948299984
2.532168811254084,69.50296714686516
2.5361690779385295,70.51840595843191
2.540169344622975,72.3964011858908
2.544169611307421,73.9503573614228
2.5481698779918664,73.53102129117016
2.552170144676312,75.9095294884068
2.5561704113607577,75.6347053036297
2.5601706780452034,77.07138363761393
2.564170944729649,78.03511683124862
2.5681712114140947,79.67611786433608
2.5721714780985403,80.40509063668925
2.576171744782986,82.19844307471317
2.5801720114674316,83.472716054918
2.5841722781518772,83.59518576197421
2.588172544836323,84.53051048693268
2.5921728115207685,84.81877721370678
2.596173078205214,86.98070028164771
2.6001733448896593,87.39382343675753
2.604173611574105,89.17264746074514
2.6081738782585506,88.94380525416157
2.6121741449429963,90.27584097647515
2.616174411627442,90.9614106005148
2.6201746783118876,91.17076730127195
2.624174944996333,91.51820642339327
2.628175211680779,93.24226848714247
2.6321754783652245,95.0353406056772
2.63617574504967,93.10238808409977
2.6401760117341158,94.29866518964363
2.6441762784185614,95.72313288186265
2.648176545103007,95.87547036264849
2.6521768117874527,95.96005115693899
2.6561770784718983,96.89376830783783
2.660177345156344,97.90140067660465
2.6641776118407896,98.0841176823999
2.6681778785252352,97.59232891082749
2.672178145209681,98.9730954451372
2.6761784118941265,98.75075540455707
2.680178678578572,99.54300475109682
2.684178945263018,99.09596300627948
2.6881792119474635,100.07976370736631
2.692179478631909,99.88757251310615
2.6961797453163547,100.12047204752123
2.7001800120008004,100.01781509303864
2.704180278685246,99.49517552874704
2.7081805453696917,100.53913420341405
2.7121808120541373,99.63857538169455
2.716181078738583,99.62114528773266
2.7201813454230286,99.40061440728338
2.7241816121074742,100.0750838806689
2.72818187879192,98.6045636435204
2.7321821454763655,99.26284140257302
2.736182412160811,98.82294357080136
2.740182678845257,98.90926979858047
2.7441829455297024,97.94548411311463
2.748183212214148,98.69378232431606
2.7521834788985937,97.34318161760946
2.7561837455830394,97.82753145549914
2.7601840122674846,95.83923979831461
2.76418427895193,97.14064875004023
2.768184545636376,95.54821581594221
2.7721848123208215,95.38582292061106
2.776185079005267,93.93186933309993
2.7801853456897128,94.98427286540718
2.7841856123741584,93.55643638316961
2.788185879058604,92.74664262824274
2.7921861457430497,91.12276298554566
2.7961864124274953,91.04293088952191
2.800186679111941,90.85065400060894
2.8041869457963866,90.60951045297894
2.8081872124808323,89.13774668640288
2.812187479165278,87.8691967426021
2.8161877458497235,87.68186016714772
2.820188012534169,86.50695703397953
2.824188279218615,85.22602039638205
2.8281885459030605,84.92934379885575
2.832188812587506,83.77662525826311
2.8361890792719517,82.59025777688558
2.8401893459563974,81.93890902729119
2.844189612640843,80.76454663812117
2.8481898793252887,80.17384074899289
2.8521901460097343,78.45186066052982
2.85619041269418,77.66991323434391
2.8601906793786256,76.6727731121404
2.8641909460630712,75.07142897782276
2.868191212747517,75.50518794781827
2.8721914794319625,72.93045185426408
2.876191746116408,71.90432200489984
2.880192012800854,71.37792282595146
2.8841922794852994,70.09493878886072
2.888192546169745,67.77252145577576
2.8921928128541907,67.81308221749116
2.8961930795386364,65.48596328043466
2.900193346223082,64.89448633256141
2.9041936129075276,63.70137364146457
2.9081938795919733,62.147514261405206
2.912194146276419,62.13964999073853
2.916194412960864,59.84305374062595
2.9201946796453098,59.162797264955294
2.9241949463297554,57.86664539951664
2.928195213014201,56.13188046443403
2.9321954796986467,55.64050810029506
2.9361957463830923,54.551863915154755
2.940196013067538,53.524646103666626
2.9441962797519836,51.82377222053838
2.9481965464364293,50.47725101044464
2.952196813120875,49.817896333937114
2.9561970798053205,47.426966125107484
2.960197346489766,46.78429078436704
2.964197613174212,46.07660336077289
2.9681978798586575,44.553295849581325
2.972198146543103,44.26093602142173
2.9761984132275487,42.74849500511621
2.9801986799119944,41.7094441728994
2.98419894659644,40.842428798541505
2.9881992132808857,38.76782740359009
2.9921994799653313,37.981185236605086
2.996199746649777,36.97946500953982
3.0002000133342226,35.71440757579798
3.0042002800186682,36.45859477106274
3.008200546703114,34.65529671677441
3.0122008133875595,33.15459097845448
3.016201080072005,32.359006378602665
3.020201346756451,32.09974826855435
3.0242016134408964,31.650770359352126
3.028201880125342,29.899469149420646
3.0322021468097877,29.39897595251015
3.0362024134942334,28.953090800418828
3.040202680178679,27.628150648262384
3.0442029468631246,27.53147544787295
3.0482032135475703,26.310476326838558
3.052203480232016,26.536715484703407
3.0562037469164616,25.17600318517617
3.060204013600907,24.624353165771794
3.064204280285353,25.58357337867479
3.0682045469697985,23.467273415037322
3.0722048136542437,22.918147732584618
3.0762050803386893,23.33030156588348
3.080205347023135,22.127704742825813
3.0842056137075806,20.882857014948666
3.0882058803920263,21.268822087047994
3.092206147076472,21.410421055990017
3.0962064137609175,20.694792491707812
3.100206680445363,20.986989422626298
3.104206947129809,21.139580240368197
3.1082072138142545,20.41648964558446
3.1122074804987,21.39981518205057
3.1162077471831457,20.008534635686487
3.1202080138675914,21.062228045327494
3.124208280552037,20.14248598625768
3.1282085472364827,19.724535840711223
3.1322088139209283,19.97362427591416
3.136209080605374,20.426202106991834
3.1402093472898196,19.895841212757595
3.1442096139742652,20.045465323855204
3.148209880658711,20.175024811967514
3.1522101473431565,21.494765405488298
3.156210414027602,20.710134483197255
3.160210680712048,21.71961817711597
3.1642109473964934,22.39459125701727
3.168211214080939,21.921980906450994
3.1722114807653847,21.82759029517314
3.1762117474498304,22.88301837765341
3.180212014134276,24.075342707364094
3.1842122808187217,23.788799862556242
3.1882125475031673,24.523596611072747
3.192212814187613,25.501246056820495
3.1962130808720586,26.22452279910084
3.200213347556504,25.984418901358616
3.20421361424095,26.70625848893014
3.2082138809253955,27.589500958600123
3.212214147609841,27.47249763078497
3.216214414294287,29.61470475396872
3.2202146809787324,30.69983180724182
3.224214947663178,30.97087038960809
3.2282152143476237,31.486021130942785
3.232215481032069,33.19799317596423
3.2362157477165145,32.68795634464101
3.24021601440096,34.11573691774524
3.244216281085406,34.416364928457895
3.2482165477698515,36.58415225380729
3.252216814454297,36.70601550656602
3.2562170811387428,37.996549707832884
3.2602173478231884,38.84019972061096
3.264217614507634,39.39331598479595
3.2682178811920797,40.35582136457667
3.2722181478765253,41.90312371611567
3.276218414560971,43.39066905143643
3.2802186812454166,44.568433495297555
3.2842189479298622,45.13409929369591
3.288219214614308,46.995977167649556
3.2922194812987535,47.78633978196875
3.296219747983199,48.612918283091
3.300220014667645,50.6413505837001
3.3042202813520904,51.262467879569975
3.308220548036536,53.03184376258704
3.3122208147209817,53.46612325593172
3.3162210814054274,54.68170679634608
3.320221348089873,55.223035841295136
3.3242216147743187,57.60376793269153
3.3282218814587643,58.10002207191113
3.33222214814321,59.64480792876935
3.3362224148276556,61.576753548350474
3.340222681512101,61.788140966250445
3.344222948196547,63.203821580514585
3.3482232148809925,64.22146104056915
3.352223481565438,65.95702946907599
3.356223748249884,65.94445887822184
3.3602240149343294,68.20101667591574
3.364224281618775,69.02059294698907
3.3682245483032207,70.50859928242785
3.3722248149876664,71.27103983127654
3.376225081672112,72.35861406241732
3.3802253483565576,74.01978756206036
3.3842256150410033,75.50469485332911
3.3882258817254485,75.8898280837059
3.392226148409894,77.0427776851255
3.3962264150943398,77.8429806091178
3.4002266817787854,79.70676031266136
3.404226948463231,79.51481363352765
3.4082272151476767,81.47141366377865
3.4122274818321223,82.01511283595032
3.416227748516568,83.53065466760616
3.4202280152010136,84.17122655451246
3.4242282818854592,85.99050190421168
3.428228548569905,86.61927674730235
3.4322288152543505,86.54957089744623
3.436229081938796,87.47376800758047
3.440229348623242,88.43596266190622
3.4442296153076875,89.78519275752144
3.448229881992133,89.71670371215835
3.4522301486765787,91.33839854760203
3.4562304153610244,91.36070179280115
3.46023068204547,92.24233105559287
3.4642309487299157,92.60294547793217
3.4682312154143613,94.07984032199778
3.472231482098807,94.68318185288845
3.4762317487832526,95.54896006865634
3.4802320154676982,95.79705414085086
3.484232282152144,95.92272982284604
3.4882325488365895,96.51457951056874
3.492232815521035,96.54464772090385
3.496233082205481,97.46812428957328
3.5002333488899264,98.31981901218343
3.504233615574372,98.80059024925137
3.5082338822588177,97.4282057445055
3.5122341489432634,98.42705469101293
3.516234415627709,99.59991269862634
3.5202346823121546,99.06189289324575
3.5242349489966003,100.28053626355333
3.528235215681046,99.76651078145953
3.5322354823654916,98.97191596704076
3.536235749049937,100.59617565711767
3.540236015734383,100.37673058339854
3.5442362824188285,100.12498001002437
3.5482365491032737,100.55136724590426
3.5522368157877193,100.27544868715029
3.556237082472165,100.09874211006048
3.5602373491566106,100.01687293987258
3.5642376158410563,99.49269314540419
3.568237882525502,99.5585878958732
3.5722381492099475,98.79849583019904
3.576238415894393,97.91406778054072
3.580238682578839,98.24410981114471
3.5842389492632845,98.28404766857783
3.58823921594773,97.07420890849241
3.5922394826321757,96.95452412453048
3.5962397493166214,97.48565828912547
3.600240016001067,96.26830885182335
3.6042402826855127,96.02143217366704
3.6082405493699583,94.32059808759277
3.612240816054404,94.40541030170388
3.6162410827388496,93.5277233374286
3.6202413494232952,93.38540000831172
3.624241616107741,92.45533345729214
3.6282418827921865,92.30966173444473
3.632242149476632,91.0138224866497
3.636242416161078,90.11437220826734
3.6402426828455234,89.21967681569637
3.644242949529969,88.13106220118668
3.6482432162144147,88.20396002515092
3.6522434828988604,86.30641888423045
3.656243749583306,85.60453250134822
3.6602440162677516,85.51481743912052
3.6642442829521973,84.08341592846597
3.668244549636643,83.54561884997287
3.6722448163210886,81.87346770514014
3.676245083005534,80.42941454852301
3.68024534968998,79.60372595162687
3.6842456163744255,79.05277512960792
3.688245883058871,78.7016828510848
3.6922461497433168,76.59418147463423
3.6962464164277624,75.93799069534586
3.700246683112208,73.39866479943595
3.7042469497966533,73.20650688745098
3.708247216481099,72.26553223857562
3.7122474831655445,70.95188482831195
3.71624774984999,70.28018529898837
3.720248016534436,68.96835891257346
3.7242482832188815,68.11362725214981
3.728248549903327,66.75062906608882
3.7322488165877727,64.88630353325242
3.7362490832722184,63.682488480634895
3.740249349956664,63.44414618568541
3.7442496166411097,62.021201310594584
3.7482498833255553,60.04943880737388
3.752250150010001,59.06325173604877
3.7562504166944466,58.29470993376226
3.7602506833788922,57.85730185535822
3.764250950063338,55.63618800052999
3.7682512167477835,54.252644200581905
3.772251483432229,53.46617027600209
3.776251750116675,52.78282146934881
3.7802520168011204,51.86195210005861
3.784252283485566,50.737735059260466
3.7882525501700117,49.08094869930499
3.7922528168544574,47.349274870494455
3.796253083538903,47.060203310457105
3.8002533502233486,44.7212902911346
3.8042536169077943,44.160879891905616
3.80825388359224,43.05991022065484
3.8122541502766856,41.34448707723645
3.816254416961131,40.53626174749523
3.820254683645577,39.14498267439224
3.8242549503300225,38.37334510892492
3.828255217014468,38.127445787708524
3.832255483698914,36.91949662754974
3.8362557503833594,36.01481205137797
3.840256017067805,34.542236642189444
3.8442562837522507,34.560600941369735
3.8482565504366963,32.17239744187777
3.852256817121142,30.63384011508036
3.8562570838055876,32.01839348156699
3.860257350490033,31.14207603973585
3.8642576171744785,29.917883534022877
3.868257883858924,28.952900850377997
3.8722581505433697,27.610640129151918
3.8762584172278154,27.59991266106986
3.880258683912261,27.00546873944995
3.8842589505967067,26.539820824801726
3.8882592172811523,26.027945357969397
3.892259483965598,25.662519697472533
3.8962597506500436,24.842947828323148
3.9002600173344892,23.927213758494567
3.904260284018935,24.053107040819523
3.9082605507033805,23.744096199897566
3.912260817387826,22.421277751520837
3.916261084072272,23.23210460227421
3.9202613507567174,22.331011501193004
3.924261617441163,20.579238463945778
3.9282618841256087,22.53370798271126
3.9322621508100544,21.18540970209521
3.9362624174945,19.720452355065348
3.9402626841789457,19.88584975267389
3.9442629508633913,20.523641600338895
3.948263217547837,20.660460194406358
3.9522634842322826,20.708445483720457
3.956263750916728,20.07335607526625
3.960264017601174,20.233952148596824
3.9642642842856195,19.82340360489703
3.968264550970065,19.635341294527127
3.972264817654511,20.207851928128367
3.9762650843389564,20.091416908082074
3.980265351023402,20.44347193647254
3.9842656177078477,20.485461449666246
3.9882658843922933,21.405508880189572
3.992266151076739,21.056648324829695
3.9962664177611846,21.62954230820687
4.00026668444563,21.706238306140065
4.0042669511300755,22.257868608994496
4.008267217814521,22.13919585722266
4.012267484498967,22.882153664808406
4.016267751183412,24.404531070495036
4.020268017867858,23.36397453979627
4.024268284552304,25.570742879922022
4.028268551236749,26.040601373760452
4.032268817921195,25.96525124734388
4.036269084605641,27.15564521833494
4.040269351290086,28.40968931616973
4.044269617974532,27.500577345707487
4.0482698846589775,28.614859757961323
4.052270151343423,29.24854318934318
4.056270418027869,30.18680968922081
4.0602706847123144,31.851885140117574
4.06427095139676,32.22102689325761
4.068271218081206,33.08091982302308
4.072271484765651,34.06387172557316
4.076271751450097,34.79556475219921
4.080272018134543,35.45847771051616
4.084272284818988,36.52021664651411
4.088272551503434,37.454611570657455
4.09227281818788,38.65460467985774
4.096273084872325,39.657759695785494
4.100273351556771,40.87646178848819
4.1042736182412165,42.20498285376912
4.108273884925662,42.521569014553386
4.112274151610108,44.12988418694735
4.116274418294553,44.83487453016342
4.120274684978999,45.97335215963728
4.124274951663445,48.638800889345944
4.12827521834789,49.463919134492635
4.132275485032336,50.27522414172242
4.136275751716782,50.7209505166112
4.140276018401227,51.326988850963545
4.144276285085673,53.41284367271657
4.148276551770119,54.41481237398953
4.152276818454564,55.388602638989525
4.15627708513901,56.87948663539577
4.1602773518234555,57.8768871359703
4.164277618507901,58.8373022806713
4.168277885192347,60.89668694482876
4.172278151876792,62.38086278376144
4.176278418561238,62.5515003240911
4.180278685245684,62.896874346379704
4.184278951930129,65.46565812587414
4.188279218614575,66.1542081253509
4.192279485299021,67.6764078755338
4.196279751983466,68.74480636241847
4.200280018667912,69.93693544333553
4.2042802853523575,71.74889836361574
4.208280552036803,72.04266440581809
4.212280818721249,73.62416786237095
4.2162810854056945,74.54109475088137
4.22028135209014,76.03370175596991
4.224281618774586,76.17649916501145
4.228281885459031,77.94333830842905
4.232282152143477,78.88871983519294
4.236282418827923,80.02587539332683
4.240282685512368,81.42474010417969
4.244282952196814,81.1542231855042
4.24828321888126,83.08218221784132
4.252283485565705,83.46348871833786
4.25628375225015,84.93674842417286
4.260284018934596,85.18696747594544
4.264284285619041,87.21149604796153
4.268284552303487,87.93874499232814
4.2722848189879326,88.69244286852683
4.276285085672378,90.01542190029592
4.280285352356824,89.63707570001606
4.2842856190412695,91.48872702181897
4.288285885725715,91.90823063033595
4.292286152410161,92.45804881687206
4.296286419094606,92.8607717572579
4.300286685779052,92.99334612357505
4.304286952463498,94.88906598315381
4.308287219147943,94.96662159092013
4.312287485832389,95.53158936077173
4.316287752516835,96.09999572015285
4.32028801920128,96.57368849754127
4.324288285885726,96.35334538447319
4.3282885525701715,96.90170688840499
4.332288819254617,96.88337706120336
4.336289085939063,98.14906613345762
4.3402893526235085,99.43924556517234
4.344289619307954,98.83014711637057
4.3482898859924,98.94161167552946
4.352290152676845,99.60618066431411
4.356290419361291,99.584777837992
4.360290686045737,99.95423647998012
4.364290952730182,100.28827339487496
4.368291219414628,100.31148686800843
4.372291486099074,99.9121828226081
4.376291752783519,100.59154922735645
4.380292019467965,100.26871756350651
4.3842922861524105,99.75295424698959
4.388292552836856,99.54553050705289
4.392292819521302,99.52808212899461
4.396293086205747,100.12489139796519
4.400293352890193,99.30586614184794
4.404293619574639,98.8879920451508
4.408293886259084,98.4362291758361
4.41229415294353,97.96997767821219
4.416294419627976,98.34486961436728
4.420294686312421,97.68671938590926
4.424294952996867,98.40451918450485
4.428295219681313,97.6337685540494
4.432295486365758,96.01712978019012
4.436295753050204,96.10247011288718
4.4402960197346495,95.85222181035654
4.444296286419095,94.28756301690441
4.448296553103541,94.17145800507542
4.452296819787986,92.83259457520782
4.456297086472432,92.72254516315613
4.460297353156878,91.0046751377558
4.464297619841323,91.35921250710618
4.468297886525769,90.92232398375988
4.472298153210215,88.68535021589472
4.47629841989466,89.3634049003521
4.480298686579106,88.17522699433567
4.4842989532635515,88.06159681611045
4.488299219947997,86.85562327318699
4.492299486632443,85.5154495502817
4.4962997533168885,83.87672374678387
4.500300020001334,82.91666678158235
4.50430028668578,82.39302937368039
4.508300553370225,81.07211562699386
4.512300820054671,80.22286615315863
4.516301086739117,79.2014596361178
4.520301353423562,78.42800849241348
4.524301620108008,78.00513568785381
4.528301886792454,76.99757087333515
4.532302153476899,75.07278067675317
4.536302420161345,73.79021426055897
4.5403026868457905,73.02624082997309
4.544302953530236,72.55760851753769
4.548303220214682,69.26991926892663
4.5523034868991274,68.78457762572557
4.556303753583573,68.07918766939981
4.560304020268019,66.787514115383
4.564304286952464,65.37645128247469
4.56830455363691,64.0614652747745
4.572304820321355,63.07160234166751
4.5763050870058,62.63255252728077
4.580305353690246,61.424900513350224
4.584305620374692,60.333616673915195
4.588305887059137,57.63395242158983
4.592306153743583,56.19432077212277
4.596306420428029,56.29387792028761
4.600306687112474,54.95484100600475
4.60430695379692,53.092558374404355
4.6083072204813655,52.5850129492021
4.612307487165811,50.26244226904944
4.616307753850257,50.37467711495781
4.6203080205347025,48.61378500366163
4.624308287219148,47.942828111941886
4.628308553903594,46.42259261992418
4.632308820588039,45.73047265426609
4.636309087272485,43.6758439838754
4.640309353956931,43.77136972049814
4.644309620641376,42.72297519911283
4.648309887325822,41.39979830315245
4.652310154010268,39.75489762435825
4.656310420694713,39.530604291939106
4.660310687379159,38.668098120369876
4.6643109540636045,36.769388476597015
4.66831122074805,36.152021886179426
4.672311487432496,35.545403369514695
4.676311754116941,34.83634601184062
4.680312020801387,32.57188971320954
4.684312287485833,31.843356696439717
4.688312554170278,31.681527907656513
4.692312820854724,31.158185474893273
4.69631308753917,28.850533170361672
4.700313354223615,28.83188936317986
4.704313620908061,28.194641576881747
4.708313887592507,26.88431681090143
4.712314154276952,26.314481254562867
4.716314420961398,26.047580217871687
4.7203146876458435,25.200514450541043
4.724314954330289,25.828283783452108
4.728315221014735,23.66664029332274
4.73231548769918,24.196710230784785
4.736315754383626,23.722670359003704
4.740316021068072,22.150486299391076
4.744316287752517,22.550076951875507
4.748316554436963,21.27194765763551
4.752316821121409,22.01531652640712
4.756317087805854,21.52628260614823
4.7603173544903,20.962143737007747
4.7643176211747456,21.133506325422903
4.768317887859191,20.75712207674151
4.772318154543637,20.25863026461938
4.7763184212280825,20.474232200646007
4.780318687912528,20.748052431872363
4.784318954596974,20.23250971365582
4.788319221281419,20.461147120523353
4.792319487965865,20.59352267301683
4.796319754650311,19.33249635319443
4.800320021334756,19.585198656181007
4.804320288019202,21.137145878717394
4.808320554703648,20.526783772394413
4.812320821388093,20.7317868732803
4.816321088072539,20.938810237616412
4.8203213547569845,21.208256204356836
4.82432162144143,20.72437584870389
4.828321888125876,21.487597778654614
4.8323221548103215,21.49930456529896
4.836322421494767,22.35246314712649
4.840322688179213,21.924470633351472
4.844322954863658,22.42100996391857
4.848323221548104,23.591553629618975
4.85232348823255,23.624816160275554
4.856323754916995,24.92889296487833
4.860324021601441,25.359514356184256
4.864324288285887,25.601566380334305
4.868324554970332,26.283728445083277
4.872324821654778,27.986458676716307
4.8763250883392235,28.538569565257934
4.880325355023669,28.3990742693722
4.884325621708114,29.493822338730574
4.8883258883925595,29.849680720358435
4.892326155077005,31.885692195372464
4.896326421761451,31.52002847509742
4.9003266884458965,32.26139669868762
4.904326955130342,33.51494557529903
4.908327221814788,34.51077776959841
4.912327488499233,34.79530919746195
4.916327755183679,36.094504656535044
4.920328021868125,37.12468349656563
4.92432828855257,37.836721616704885
4.928328555237016,39.72531022644762
4.932328821921462,40.888468734897636
4.936329088605907,40.84390802396899
4.940329355290353,42.717334465326196
4.9443296219747985,43.956222002633645
4.948329888659244,45.33935007502776
4.95233015534369,45.07576665665962
4.9563304220281355,47.279411981068556
4.960330688712581,48.06032356201216
4.964330955397027,49.142614231919566
4.968331222081472,51.15347342739342
4.972331488765918,52.17471331704218
4.976331755450364,53.15391313616038
4.980332022134809,53.25663742540975
4.984332288819255,54.65443675775626
4.988332555503701,56.81098185945296
4.992332822188146,57.678321982034404
4.996333088872592,59.31632099550949
5.0003333555570375,59.992042251321884
5.004333622241483,60.7860316945288
5.008333888925929,62.575486277649375
5.012334155610374,63.541997466914566
5.01633442229482,64.78710025194428
5.020334688979266,65.90835133215435
5.024334955663711,66.45346551873237
5.028335222348157,68.29800849083321
5.032335489032603,69.97179227239148
5.036335755717048,70.62088188131085
5.040336022401494,71.6010657936702
5.04433628908594,72.95269488108573
5.048336555770385,74.33849760938139
5.052336822454831,75.30022078093869
5.0563370891392765,76.74942599383515
5.060337355823722,77.80262976240031
5.064337622508168,78.60957787326201
5.068337889192613,79.70677932333129
5.072338155877059,80.61105207829063
5.076338422561505,81.34901677701443
5.08033868924595,82.83354317538027
5.084338955930396,83.56329078476371
5.088339222614842,84.83868433572636
5.092339489299287,85.79295624983675
5.096339755983733,86.79783876428294
5.1003400226681785,87.95167897477106
5.104340289352624,88.94008699269617
5.10834055603707,90.35136944718177
5.1123408227215155,89.46890799625288
5.116341089405961,90.3064548638979
5.120341356090407,91.82983557718677
5.124341622774852,92.1382724824691
5.128341889459298,92.34855567448344
5.132342156143744,93.49766730060469
5.136342422828189,94.14822338833908
5.140342689512635,94.66659422481392
5.144342956197081,95.43500394117852
5.148343222881526,96.17999622733852
5.152343489565972,96.47910609301532
5.1563437562504175,96.72977176894699
5.160344022934863,97.59419169144337
5.164344289619309,98.49222597111402
5.1683445563037544,98.55675449042259
5.1723448229882,98.51633600231258
5.176345089672646,98.43482099210863
5.180345356357091,98.76171570029307
5.184345623041537,98.99050704082991
5.188345889725983,99.08618145328367
5.192346156410428,98.94678932462624
5.196346423094874,100.01568901972958
5.200346689779319,99.79941736656478
5.204346956463764,100.66602603098718
5.20834722314821,100.16366176916945
5.212347489832656,100.80512864818611
5.216347756517101,99.71421934425011
5.220348023201547,100.29401155498502
5.2243482898859925,99.25881260979259
5.228348556570438,99.24364541931112
5.232348823254884,99.89506588721679
5.2363490899393295,98.83446684242513
5.240349356623775,99.32243951558507
5.244349623308221,98.11222576916366
5.248349889992666,97.58066703911584
5.252350156677112,98.09411655207528
5.256350423361558,97.74458375535113
5.260350690046003,97.35229519074915
5.264350956730449,96.02107592583108
5.268351223414895,94.91090304031918
5.27235149009934,94.91169591810942
5.276351756783786,94.87173009618078
5.2803520234682315,94.35037504396463
5.284352290152677,92.6594545462145
5.288352556837123,93.12565750314818
5.292352823521568,93.06819512609228
5.296353090206014,91.95479728773614
5.30035335689046,91.04017192131501
5.304353623574905,90.40591419398841
5.308353890259351,87.99819706636234
5.312354156943797,88.1208915975427
5.316354423628242,87.9375276798999
5.320354690312688,85.97250242197505
5.324354956997134,85.67583740178749
5.328355223681579,83.93060476811105
5.332355490366025,83.89580576883876
5.3363557570504705,81.91474459149933
5.340356023734916,81.74308229650885
5.344356290419362,80.54023424369646
5.348356557103807,79.39142430264883
5.352356823788253,79.46677480567378
5.356357090472699,77.55775393497967
5.360357357157144,76.1972032544845
5.36435762384159,75.15265564505314
5.368357890526036,74.61030073222906
5.372358157210481,73.84563159408206
5.376358423894927,72.36177242846313
5.3803586905793725,70.30192359876288
5.384358957263818,70.31154526036656
5.388359223948264,68.6605166928519
5.3923594906327095,68.05908113018054
5.396359757317155,65.84317641645964
5.400360024001601,65.29607992671608
5.404360290686046,63.047234185753815
5.408360557370492,62.1673981387863
5.412360824054938,61.23463894466388
5.416361090739383,59.17020565642062
5.420361357423829,59.418271430093384
5.424361624108275,58.23957564301185
5.42836189079272,56.613297137160366
5.432362157477166,55.89925585206991
5.4363624241616115,52.93617193214869
5.440362690846057,53.07303127472242
5.444362957530503,52.95379494050581
5.4483632242149485,50.80289180085134
5.452363490899394,49.95821156220132
5.45636375758384,48.43788957445621
5.460364024268285,47.63437544804559
5.464364290952731,46.56720752802482
5.468364557637177,44.38937984201551
5.472364824321622,43.75984737132733
5.476365091006068,42.78055728005042
5.480365357690514,40.80432998662797
5.484365624374959,40.35380218212136
5.488365891059405,39.16054141979955
5.4923661577438505,37.3053508961581
5.496366424428296,36.714917368649004
5.500366691112742,35.094940083369856
5.504366957797187,36.16132455558199
5.508367224481633,34.589062701185895
5.512367491166079,34.20681373365583
5.5163677578505235,32.90170872408019
5.520368024534969,31.311296822994358
5.524368291219415,30.572718400054523
5.52836855790386,30.751475109147744
5.532368824588306,30.276172306571777
5.536369091272752,27.876303470636973
5.540369357957197,27.396417041488917
5.544369624641643,27.050824058919666
5.548369891326089,26.155004733324326
5.552370158010534,26.17690865544294
5.55637042469498,25.27332082532137
5.5603706913794255,23.505051446828
5.564370958063871,24.004345772640832
5.568371224748317,24.113878397384205
5.5723714914327624,22.314982830780004
5.576371758117208,23.13986271751213
5.580372024801654,22.555211174307598
5.584372291486099,21.576577856614648
5.588372558170545,22.071946455591597
5.592372824854991,21.652441304191782
5.596373091539436,20.34884559791704
5.600373358223882,20.929100673158334
5.604373624908328,21.062442733763078
5.608373891592773,20.35569995332477
5.612374158277219,21.30486625475494
5.6163744249616645,20.29221921300661
5.62037469164611,19.800094862223713
5.624374958330556,20.104561623376302
5.628375225015001,19.453963145431906
5.632375491699447,20.084364993574678
5.636375758383893,20.471528506246404
5.640376025068338,20.383566656136402
5.644376291752784,20.051979843080364
5.64837655843723,20.626372412764194
5.652376825121675,21.268699095153178
5.656377091806121,20.619276912285773
5.660377358490567,21.010152186297848
5.664377625175012,22.031833862204625
5.668377891859458,21.593475042676474
5.6723781585439035,22.82897384880131
5.676378425228349,23.71402002696283
5.680378691912795,23.881658292775192
5.68437895859724,23.980496589744913
5.688379225281686,23.488476838189932
5.692379491966132,25.65637020033616
5.696379758650577,26.04104734912108
5.700380025335023,26.184241981337088
5.704380292019469,26.997438800385964
5.708380558703914,28.433043695028466
5.71238082538836,28.761175968109352
5.7163810920728055,29.308975371326017
5.720381358757251,29.53303054099825
5.724381625441697,30.91471105788097
5.7283818921261425,31.164294289319937
5.732382158810588,32.97173097808398
5.736382425495034,32.761853513241
5.740382692179479,34.0562885974045
5.744382958863925,34.75503802233684
5.748383225548371,36.45560313422831
5.752383492232816,37.35540975357265
5.756383758917262,37.21432677412499
5.760384025601708,38.98615221952312
5.764384292286153,40.193847950786655
5.768384558970599,41.04560484282261
5.7723848256550445,42.505818857394125
5.77638509233949,42.446953959001966
5.780385359023936,45.57671666631244
5.784385625708381,46.01527748731377
5.788385892392827,46.00055900053868
5.792386159077273,48.483385395944985
5.796386425761718,48.75839155344553
5.800386692446164,50.23996108091109
5.80438695913061,50.81138671785052
5.808387225815055,52.003043852253285
5.812387492499501,52.95033075225882
5.816387759183947,54.23929195292097
5.820388025868392,56.00259162835699
5.824388292552838,57.616178658200475
5.8283885592372835,59.020734073800796
5.832388825921728,59.95680682436888
5.836389092606174,60.94010149265411
5.8403893592906195,62.67589139823775
5.844389625975065,63.20166085563845
5.848389892659511,65.53447729491681
5.8523901593439565,65.62719258811514
5.856390426028402,67.14225357872222
5.860390692712848,67.58155065378017
5.864390959397293,70.4277297287949
5.868391226081739,70.8216240304766
5.872391492766185,71.91519239881244
5.87639175945063,72.39837946441584
5.880392026135076,74.04735917128562
5.884392292819522,74.76716878845727
5.888392559503967,77.18430384183223
5.892392826188413,77.10886635859711
5.8963930928728585,78.53184974319086
5.900393359557304,78.76329046903416
5.90439362624175,80.60148779177263
5.908393892926195,80.93482302523444
5.912394159610641,82.5093811585841
5.916394426295087,83.2894698044438
5.920394692979532,85.1978269552719
5.924394959663978,85.43211031309623
5.928395226348424,86.60169273253759
5.932395493032869,87.82735934392548
5.936395759717315,88.97045335995686
5.940396026401761,88.81035354711179
5.944396293086206,89.28682668352914
5.948396559770652,90.31086845536993
5.9523968264550975,92.00191041104782
5.956397093139543,92.12635264639763
5.960397359823989,92.61248629757692
5.964397626508434,94.40728178194841
5.96839789319288,93.2508509580035
5.972398159877326,94.12136237545194
5.976398426561771,94.74653753973827
5.980398693246217,94.68246005438097
5.984398959930663,96.45119334063232
5.988399226615108,95.89208817808125
5.992399493299554,97.62869247003484
5.9963997599839995,97.19161979839296
6.000400026668445,97.99791078563413
6.004400293352891,98.41713460458172
6.0084005600373365,99.00559889275247
6.012400826721782,98.48707896417444
6.016401093406228,99.59562063712113
6.020401360090673,99.17936430938447
6.024401626775119,99.10206251888795
6.028401893459565,100.89142194856281
6.03240216014401,99.70075045088554
6.036402426828456,99.05068349363404
6.040402693512902,100.07538289428271
6.044402960197347,100.99573362434619
6.048403226881793,100.14655910764954
6.0524034935662385,99.75388613379005
6.056403760250684,100.20310816955903
6.06040402693513,99.53815730950298
6.0644042936195754,99.40701106434315
6.068404560304021,99.08034263930284
6.072404826988467,99.59612496840688
6.076405093672912,98.24320649547997
6.080405360357358,98.41661218630786
6.084405627041804,98.37533677189926
6.088405893726249,98.0422557297531
6.092406160410695,97.13468790626193
6.096406427095141,96.59985558118801
6.100406693779586,95.76147917685053
6.104406960464032,95.50981572476701
6.1084072271484775,95.2064506245716
6.112407493832923,94.3658514530847
6.116407760517369,93.23062390109605
6.120408027201814,92.91854661119359
6.12440829388626,91.84617209829555
6.128408560570706,91.69863962344361
6.132408827255151,92.25852168288412
6.136409093939597,89.8028737839307
6.140409360624043,88.80481965596277
6.144409627308487,88.81978500608743
6.148409893992933,86.73928240025008
6.152410160677379,86.84653734556868
6.156410427361824,85.93319663531896
6.16041069404627,84.43824186674475
6.164410960730716,84.50875305914073
6.168411227415161,82.93020386991473
6.172411494099607,81.4120048372969
6.1764117607840525,80.7258415168939
6.180412027468498,79.65098483961955
6.184412294152944,79.17855784819227
6.188412560837389,77.29425162062638
6.192412827521835,77.09497532270836
6.196413094206281,75.9738140936458
6.200413360890726,74.80280562593587
6.204413627575172,73.09323349508017
6.208413894259618,71.60886836944023
6.212414160944063,71.5185950081329
6.216414427628509,70.28204403251176
6.220414694312955,68.33471939030629
6.2244149609974,67.36885619481984
6.228415227681846,66.13659007494284
6.2324154943662915,64.62404188929015
6.236415761050737,64.23255957687469
6.240416027735183,63.65114732201009
6.244416294419628,61.20491553127585
6.248416561104074,60.79978487528561
6.25241682778852,58.909355820854024
6.256417094472965,58.70658322983087
6.260417361157411,56.779343959832524
6.264417627841857,55.717326772155026
6.268417894526302,55.28107468112497
6.272418161210748,52.79355354103473
6.2764184278951936,52.932114391669074
6.280418694579639,51.21315554235386
6.284418961264085,48.78879072336688
6.2884192279485305,48.39492592135074
6.292419494632976,47.170438489654636
6.296419761317422,46.298896227963326
6.300420028001867,45.83064697846663
6.304420294686313,43.845211501044574
6.308420561370759,42.665565035369696
6.312420828055204,41.14634708140842
6.31642109473965,41.004111276079165
6.320421361424096,39.93673699012342
6.324421628108541,38.34843193281531
6.328421894792987,37.71736006965201
6.3324221614774325,36.98193714772115
6.336422428161878,35.16690394277657
6.340422694846324,34.48868284629377
6.3444229615307695,33.836607419758806
6.348423228215215,32.914799539498965
6.352423494899661,32.47905163743585
6.356423761584106,31.2656453832677
6.360424028268552,30.53905053642185
6.364424294952998,29.009736161013866
6.368424561637443,29.531815451536293
6.372424828321889,28.444028584457378
6.376425095006335,26.90793702132704
6.38042536169078,26.92455214511845
6.384425628375226,26.570750724030354
6.3884258950596715,24.99879633860988
6.392426161744117,24.56898026774367
6.396426428428563,24.243925971865
6.400426695113008,22.974294000837507
6.404426961797454,23.248146852818415
6.4084272284819,21.585395932751158
6.412427495166345,21.141973911483216
6.416427761850791,22.407911399139227
6.420428028535237,21.82303615715741
6.424428295219682,21.485953837996778
6.428428561904128,20.972153943124436
6.432428828588574,20.64726069389215
6.436429095273019,20.763111056087833
6.440429361957465,21.039619579940435
6.4444296286419105,21.369269619154114
6.448429895326356,20.088824112954644
6.452430162010802,20.217434587227096
6.456430428695247,20.762338194949805
6.460430695379692,19.650378454203835
6.464430962064138,19.969424005932215
6.4684312287485835,20.10414453863237
6.472431495433029,20.31921108147731
6.476431762117475,20.3871646342547
6.48043202880192,20.647981475737698
6.484432295486366,20.270462812707777
6.488432562170812,22.2805693649332
6.492432828855257,21.00362267593134
6.496433095539703,22.425098941128095
6.500433362224149,21.519859442882737
6.504433628908594,22.87157818540804
6.50843389559304,23.380610270091484
6.5124341622774855,23.366983340666486
6.516434428961931,24.33052213873431
6.520434695646377,24.67939169625618
6.524434962330822,23.779104199315178
6.528435229015268,24.58146639787674
6.532435495699714,26.05137147555886
6.536435762384159,27.23197449823221
6.540436029068605,27.088343413169888
6.544436295753051,28.402567103876418
6.548436562437496,29.139043979456613
6.552436829121942,30.00641973328538
6.556437095806388,31.232872111229163
6.560437362490833,31.32460002425694
6.564437629175279,32.82854389102051
6.5684378958597245,33.98751830403434
6.57243816254417,34.33832280602297
6.576438429228616,34.04087869435634
6.580438695913061,35.50453343016937
6.584438962597507,36.15802730634856
6.588439229281953,37.61019806417096
6.592439495966398,39.69679010967587
6.596439762650844,40.647693776564594
6.60044002933529,40.56131520473695
6.604440296019735,41.2523785782066
6.608440562704181,42.965773728266484
6.6124408293886265,43.9121174793244
6.616441096073072,45.58506362414582
6.620441362757518,46.024619491135375
6.6244416294419635,47.906789876023865
6.628441896126409,48.307567443183
6.632442162810855,49.75397209137561
6.6364424294953,50.5893430054759
6.640442696179746,52.224724464249384
6.644442962864192,53.61309449900377
6.648443229548637,54.911869994665224
6.652443496233083,56.11733069335811
6.656443762917529,56.490663513723206
6.660444029601974,57.43545345791122
6.66444429628642,60.20128349013354
6.6684445629708655,61.733365713718385
6.672444829655311,61.575141193710245
6.676445096339757,63.183986780839284
6.680445363024202,64.77752224427634
6.684445629708648,65.40810323081038
6.688445896393094,67.58045424409316
6.692446163077539,67.54448014777246
6.696446429761985,69.10244262848053
6.700446696446431,70.69014731959092
6.704446963130876,71.54546425576173
6.708447229815322,72.33801030959802
6.712447496499768,73.67095310597442
6.716447763184213,74.0360088567309
6.720448029868659,75.26712480262621
6.7244482965531045,76.76111597923268
6.72844856323755,77.55737142948055
6.732448829921996,79.13409856941507
6.736449096606441,80.68452867251473
6.740449363290887,80.09621207318146
6.744449629975333,82.43574902942068
6.748449896659778,83.59485959899838
6.752450163344224,84.57677832208674
6.75645043002867,85.40328282517817
6.760450696713115,86.22966699026075
6.764450963397561,86.83070469711232
6.7684512300820066,87.97503886180836
6.772451496766452,88.37185423335194
6.776451763450897,88.80777129656344
6.780452030135343,90.1073842362861
6.784452296819788,90.37302776361541
6.788452563504234,90.99143376399105
6.7924528301886795,91.87571238082226
6.796453096873125,93.65383076991402
6.800453363557571,93.65441535427826
6.804453630242016,94.30388781152405
6.808453896926462,95.13972235120606
6.812454163610908,95.53099722838982
6.816454430295353,96.17476626762941
6.820454696979799,96.69481723673748
6.824454963664245,97.60028802089376
6.82845523034869,97.56814285423292
6.832455497033136,98.3373967297737
6.836455763717582,97.47012201804098
6.840456030402027,98.80126812177423
6.844456297086473,99.16437385411832
6.8484565637709185,98.6814480380027
6.852456830455364,99.6466014618689
6.85645709713981,99.3522876849745
6.860457363824255,100.2887950682913
6.864457630508701,99.0013215428509
6.868457897193147,99.93283679031687
6.872458163877592,99.83444131791384
6.876458430562038,99.76548850815144
6.880458697246484,99.7484129817912
6.884458963930929,99.84944522692244
6.888459230615375,100.37182087542384
6.8924594972998205,99.51311479511608
6.896459763984266,99.30730108236965
6.900460030668712,98.9804045952882
6.9044602973531575,98.96403169072576
6.908460564037603,99.29288181581418
6.912460830722049,98.12112469630827
6.916461097406494,98.24092384861744
6.92046136409094,97.94053182103305
6.924461630775386,97.3558149098846
6.928461897459831,96.95083139213588
6.932462164144277,95.944157501955
6.936462430828723,95.68297781855411
6.940462697513168,94.86663013140975
6.944462964197614,94.07686153661932
6.9484632308820595,94.26294788481908
6.952463497566505,93.21779554154148
6.956463764250951,93.14946673499674
6.9604640309353965,91.99327108234533
6.964464297619842,91.28005741778307
6.968464564304288,90.06711752468355
6.972464830988733,89.70298722249274
6.976465097673179,89.0091473965586
6.980465364357625,87.43391263264995
6.98446563104207,86.70762999884215
6.988465897726516,86.26436983186879
6.992466164410962,85.92017116792553
6.996466431095407,83.68245456362773
7.000466697779853,83.3572941048816
7.0044669644642985,82.31889168642478
7.008467231148744,82.00504731061176
7.01246749783319,80.55996459827783
7.016467764517635,80.47305503381172
7.020468031202081,77.90079424222864
7.024468297886527,77.42691287021091
7.028468564570972,76.82973524569451
7.032468831255418,75.28894978497496
7.036469097939864,74.14396921559444
7.040469364624309,73.06459394761231
7.044469631308755,72.03607109518781
7.048469897993201,70.22280829984595
7.052470164677646,70.14731273876899
7.056470431362092,68.10912021553561
7.0604706980465375,67.70075700225667
7.064470964730983,66.03730544905648
7.068471231415429,64.81017411309176
7.072471498099874,63.51576957574059
7.07647176478432,60.93393741389234
7.080472031468766,61.589836637541
7.084472298153211,60.25045545903808
7.088472564837657,58.25330725427057
7.092472831522102,57.028125745456244
7.096473098206547,56.39856597806136
7.100473364890993,55.24858073995423
7.104473631575439,53.83587823324049
7.108473898259884,51.86790142917517
7.11247416494433,49.85722604662352
7.116474431628776,50.58328139644742
7.120474698313221,48.02657497846962
7.124474964997667,47.95504780803051
7.1284752316821125,46.96284006256521
7.132475498366558,45.88308557241136
7.136475765051004,44.57867709656205
7.140476031735449,42.92835485723479
7.144476298419895,41.874992150354345
7.148476565104341,40.673509728635516
7.152476831788786,39.49453701155135
7.156477098473232,38.6659577531985
7.160477365157678,37.98491585411614
7.164477631842123,37.546940989613034
7.168477898526569,35.20051217195016
7.1724781652110146,34.95684681386261
7.17647843189546,34.33016568062614
7.180478698579906,32.718984351290985
7.1844789652643515,31.27207185964812
7.188479231948797,31.17631889524518
7.192479498633243,30.258761538868015
7.196479765317688,29.13113579478529
7.200480032002134,29.36517657587276
7.20448029868658,28.956856120499353
7.208480565371025,29.25021908338211
7.212480832055471,27.92149821027431
7.216481098739917,25.62424337314733
7.220481365424362,25.45793291304469
7.224481632108808,24.644941610948024
7.2284818987932535,24.62816616076809
7.232482165477699,23.617496290466832
7.236482432162145,22.46237111599735
7.2404826988465905,22.610759064231367
7.244482965531036,22.6113086183841
7.248483232215482,21.797088113259072
7.252483498899927,21.147046587847637
7.256483765584373,21.160740505647954
7.260484032268819,20.782563937806987
7.264484298953264,21.311306224106644
7.26848456563771,20.61027327047051
7.272484832322156,20.905002853820935
7.276485099006601,20.870373535400237
7.280485365691047,19.498981844424986
7.2844856323754925,20.64732085835442
7.288485899059938,20.42163657810177
7.292486165744384,19.69109950351032
7.296486432428829,19.425640268615105
7.300486699113275,20.357530970086565
7.304486965797721,19.883911111488345
7.308487232482166,20.2408814178875
7.312487499166612,21.12095651753223
7.316487765851058,20.620223184276526
7.320488032535503,20.985616637860247
7.324488299219949,20.240293971649862
7.328488565904395,20.96686299439813
7.33248883258884,22.36756671733436
7.336489099273286,22.15486618505019
7.3404893659577315,21.389383804377484
7.344489632642177,22.906043616843508
7.348489899326623,24.052398295594028
7.352490166011068,24.26669976764307
7.356490432695514,24.40462848553259
7.36049069937996,25.0542752442389
7.364490966064405,25.47028684672765
7.368491232748851,26.541485944120737
7.372491499433297,26.92130294780665
7.376491766117742,29.05063060223975
7.380492032802188,29.219929745040965
7.3844922994866335,30.155092353964584
7.388492566171079,30.312783072322706
7.392492832855525,31.697594831763357
7.3964930995399705,31.24698813379335
7.400493366224416,31.67444786273196
7.404493632908862,32.965599549613835
7.4084938995933065,34.3818223823035
7.412494166277752,35.010892911352634
7.416494432962198,35.911525835861006
7.420494699646643,36.67216244163663
7.424494966331089,38.28473529336008
7.428495233015535,39.72493798023269
7.43249549969998,40.3560431221058
7.436495766384426,40.271044603048
7.440496033068872,42.377755253355474
7.444496299753317,44.29964085901556
7.448496566437763,44.01454622258492
7.452496833122209,46.45182079445969
7.456497099806654,47.79304331822362
7.4604973664911,47.49775683547358
7.4644976331755455,50.00695898767687
7.468497899859991,50.57619468791086
7.472498166544437,51.35302408046033
7.476498433228882,54.11421275018524
7.480498699913328,53.29579067687901
7.484498966597774,54.644915393336326
7.488499233282219,56.98109288905302
7.492499499966665,58.258356440738915
7.496499766651111,58.39801037647426
7.500500033335556,60.84108870537952
7.504500300020002,62.53224850760234
7.5085005667044475,62.217824749065365
7.512500833388893,62.976810571954985
7.516501100073339,65.01437451033851
7.5205013667577845,65.358473294216
7.52450163344223,67.01899461794623
7.528501900126676,67.72854356381711
7.532502166811121,70.13113820587827
7.536502433495567,71.01080787156265
7.540502700180013,71.41184232472835
7.544502966864458,73.38030477238526
7.548503233548904,74.02168608933742
7.55250350023335,75.47792829815381
7.556503766917795,77.00512923057528
7.560504033602241,77.60836862928274
7.5645043002866865,78.10948659145927
7.568504566971132,79.72540664251277
7.572504833655578,80.79302035013902
7.5765051003400234,82.1039291533564
7.580505367024469,83.38882851724429
7.584505633708915,83.68922788176943
7.58850590039336,85.17531609733715
7.592506167077806,85.3116594975523
7.596506433762252,85.96213867609727
7.600506700446697,88.28140887891364
7.604506967131143,87.65242184781094
7.608507233815589,89.67580950118263
7.612507500500034,89.85070919373197
7.61650776718448,90.6887816024561
7.6205080338689255,91.88847409568157
7.624508300553371,92.34501523921188
7.628508567237817,92.67477786189855
7.632508833922262,93.1408867223719
7.636509100606708,94.30489619057673
7.640509367291154,94.14448778326438
7.644509633975599,95.00268109855028
7.648509900660045,95.462065854793
7.652510167344491,95.61452235221735
7.656510434028936,97.16436029995302
7.660510700713382,97.56554522910663
7.664510967397828,98.20496027899695
7.668511234082273,98.4774501426357
7.672511500766719,97.98738881212077
7.6765117674511645,98.26524078188567
7.68051203413561,98.9813962501822
7.684512300820056,99.02517912231048
7.688512567504501,99.19376352963603
7.692512834188947,99.20028296622621
7.696513100873393,99.28071740579547
7.700513367557838,99.99962695817416
7.704513634242284,100.006651052591
7.70851390092673,99.79118505948782
7.712514167611175,99.38755305758568
7.716514434295621,99.45882041517139
7.720514700980066,99.73749923942766
7.724514967664511,99.23564130251906
7.728515234348957,99.45560061948119
7.732515501033403,99.28413423702096
7.736515767717848,99.74307196770934
7.740516034402294,98.44128490953955
7.7445163010867395,97.96439918336425
7.748516567771185,98.08074563205466
7.752516834455631,98.4459915138365
7.756517101140076,98.06894627176928
7.760517367824522,97.09720413500945
7.764517634508968,96.60992197835493
7.768517901193413,96.44749096370067
7.772518167877859,95.26274018013349
7.776518434562305,94.46993354067439
7.78051870124675,92.96148379213112
7.784518967931196,94.03748168371186
7.7885192346156416,92.49772500204575
7.792519501300087,91.6509479133999
7.796519767984533,92.11290729160969
7.8005200346689785,91.25548875966174
7.804520301353424,90.23448764821225
7.80852056803787,89.65575765374646
7.812520834722315,87.67863801177874
7.816521101406761,86.87212874154794
7.820521368091207,85.90544289105651
7.824521634775652,85.58977283416455
7.828521901460098,84.49978746581401
7.832522168144544,83.40642700688706
7.836522434828989,82.41134676646975
7.840522701513435,82.42029397852131
7.8445229681978805,80.3121302286713
7.848523234882326,79.42907227632892
7.852523501566772,78.70162341861068
7.8565237682512175,78.0325126178391
7.860524034935663,76.2590512777616
7.864524301620109,74.56383827556297
7.868524568304554,73.5190416651801
7.872524834989,72.8065983106809
7.876525101673446,71.83344585109663
7.880525368357891,70.62953644753222
7.884525635042337,70.1608035927568
7.888525901726783,68.4446851526264
7.892526168411228,66.85845289642837
7.896526435095674,65.59238973586486
7.9005267017801195,65.26506231048576
7.904526968464565,62.99722615443784
7.908527235149011,62.692089929372344
7.912527501833456,60.25993883540552
7.916527768517902,59.356203123856375
7.920528035202348,59.266521089981346
7.924528301886793,57.53912088985538
7.928528568571239,56.92567029360369
7.932528835255685,55.07358601164639
7.93652910194013,53.2282401931761
7.940529368624576,52.82453527905172
7.944529635309022,51.33719935946089
7.948529901993467,50.83838800989588
7.952530168677913,49.499867626627896
7.9565304353623585,48.10746157297197
7.960530702046804,46.93761696608203
7.96453096873125,46.162073368593916
7.968531235415695,44.59955311356278
7.972531502100141,43.30370458056755
7.976531768784587,42.13029684119025
7.980532035469032,40.85558970236865
7.984532302153478,40.39941095178184
7.988532568837924,38.588169985993055
7.992532835522369,38.44042940909941
7.996533102206815,37.86418478662821
8.00053336889126,36.84411978101738
8.004533635575706,34.63625279633465
8.008533902260151,34.32795011761437
8.012534168944597,34.22982858241314
8.016534435629042,34.01004757576939
8.020534702313489,31.723135481162394
8.024534968997934,31.834081691928564
8.02853523568238,30.299394569977533
8.032535502366825,29.64205521630323
8.036535769051271,27.982973851472874
8.040536035735716,28.38759759159113
8.044536302420163,27.17532541293663
8.048536569104607,26.06453374438005
8.052536835789054,25.63803451950888
8.056537102473499,25.306674604199127
8.060537369157945,24.665843179703312
8.06453763584239,23.93545758455536
8.068537902526836,23.655724828206193
8.072538169211281,23.19128898714323
8.076538435895728,22.04015539258842
8.080538702580172,22.547109069394644
8.084538969264619,22.189140753812634
8.088539235949064,21.845847250504537
8.09253950263351,21.738758425920654
8.096539769317955,20.15437156701721
8.100540036002402,21.018952284020656
8.104540302686846,20.697928825754857
8.108540569371293,20.477324392034937
8.112540836055738,20.522351813795805
8.116541102740184,19.924708766135762
8.120541369424629,19.590726297183462
8.124541636109075,20.175657367959847
8.12854190279352,20.64431717317969
8.132542169477967,20.82343472452466
8.136542436162411,19.87425045661542
8.140542702846858,18.933087405204297
8.144542969531303,20.109042227649894
8.14854323621575,21.28760310281016
8.152543502900194,20.96144347544703
8.15654376958464,21.080139562724995
8.160544036269085,22.5567869992387
8.164544302953532,21.097540849567217
8.168544569637977,22.63306235348174
8.172544836322423,22.307157830676083
8.176545103006868,22.641619003957135
8.180545369691314,22.55035924365468
8.18454563637576,23.357049145795706
8.188545903060206,23.914559294741792
8.19254616974465,24.789279450528564
8.196546436429095,25.92512874064553
8.200546703113542,25.97557352866392
8.204546969797986,25.83386731841192
8.208547236482433,27.16948403467013
8.212547503166878,28.66286187842412
8.216547769851324,28.509855000905077
8.220548036535769,30.075464961158854
8.224548303220216,30.595169685958528
8.22854856990466,31.218594145609792
8.232548836589107,32.8695880259096
8.236549103273552,32.444390420500795
8.240549369957998,34.26423340094561
8.244549636642443,34.585279697365
8.24854990332689,36.269652345482655
8.252550170011334,36.79725813841906
8.25655043669578,38.293796788543744
8.260550703380225,39.768236241635286
8.264550970064672,40.548217706389345
8.268551236749117,41.992232918439015
8.272551503433563,41.225010045309006
8.276551770118008,43.6414101185923
8.280552036802455,43.98548921324064
8.2845523034869,45.73916813904952
8.288552570171346,46.86194882374819
8.29255283685579,47.437112268790315
8.296553103540237,48.63491073453209
8.300553370224682,50.727094113676664
8.304553636909128,51.801392388692086
8.308553903593573,51.792942297745796
8.31255417027802,54.34229890194064
8.316554436962464,54.50288628584288
8.320554703646911,55.930032726973906
8.324554970331356,57.04791740530879
8.328555237015802,59.38873737623634
8.332555503700247,60.31514941992218
8.336555770384694,60.79209168138844
8.340556037069138,63.47439167507443
8.344556303753585,63.62724270314658
8.34855657043803,64.48218781531158
8.352556837122476,66.05577001308018
8.35655710380692,66.86132321273116
8.360557370491367,68.472909267226
8.364557637175812,68.4588750875006
8.368557903860259,70.2049091617168
8.372558170544703,71.36479861178331
8.37655843722915,73.08784938085185
8.380558703913595,73.69430046386071
8.384558970598041,75.7332191906907
8.388559237282486,76.14870659311201
8.392559503966933,77.26627925357795
8.396559770651377,77.64446076721244
8.400560037335824,79.26204229815696
8.404560304020269,80.52263712593891
8.408560570704715,81.39821718586862
8.41256083738916,81.5401990115526
8.416561104073606,81.95148505212457
8.420561370758051,84.01799047237029
8.424561637442498,85.22790158573198
8.428561904126942,85.5554462733055
8.432562170811389,86.66749886205092
8.436562437495834,88.02087584239851
8.44056270418028,89.34540524381734
8.444562970864725,89.10565750519956
8.448563237549171,90.05851701444504
8.452563504233616,90.7654641311156
8.456563770918063,92.22145799307121
8.460564037602508,92.23390879316665
8.464564304286954,92.30002498770841
8.468564570971399,94.08954737291629
8.472564837655845,95.04248471641296
8.47656510434029,95.70428679116738
8.480565371024737,95.86967743876279
8.484565637709181,96.1677629950647
8.488565904393628,96.83763580721566
8.492566171078073,98.55619184395964
8.49656643776252,97.88996471823357
8.500566704446964,97.05087664387374
8.50456697113141,98.24011514646512
8.508567237815855,98.18679102999315
8.5125675045003,98.75266814193392
8.516567771184747,99.83084456068451
8.520568037869191,99.2374163886565
8.524568304553638,99.45316350410044
8.528568571238083,100.03738483103417
8.532568837922529,99.96578985147617
8.536569104606974,100.15202604873983
8.54056937129142,99.87668628595247
8.544569637975865,99.20064205278412
8.548569904660312,100.22077772846188
8.552570171344756,99.56964379874707
8.556570438029203,99.73555550904976
8.560570704713648,100.35785233981011
8.564570971398094,99.2435364182843
8.568571238082539,99.29372261394553
8.572571504766985,97.7528254697892
8.57657177145143,98.70206932743353
8.580572038135877,98.8199344466758
8.584572304820322,96.61333639700177
8.588572571504768,97.2785511604853
8.592572838189213,97.26981353041562
8.59657310487366,96.61677480694011
8.600573371558104,96.16740294033316
8.60457363824255,95.82650030077825
8.608573904926995,94.73373507462941
8.612574171611442,94.26955376593301
8.616574438295887,93.95520824643013
8.620574704980333,93.08882321958197
8.624574971664778,92.7419608632006
8.628575238349224,92.01320958224115
8.63257550503367,90.47310270186073
8.636575771718116,90.47257895557692
8.64057603840256,89.27090710689583
8.644576305087007,88.44842087541836
8.648576571771452,87.34042652124953
8.652576838455898,86.29120897389008
8.656577105140343,85.14409214760771
8.66057737182479,84.78581850875742
8.664577638509234,84.58843141915764
8.66857790519368,82.20005327924531
8.672578171878126,81.70133879014709
8.676578438562572,81.06975260766532
8.680578705247017,79.54059050315294
8.684578971931463,78.74947632279631
8.688579238615908,77.15818864234159
8.692579505300355,76.87731724829102
8.6965797719848,75.61123980625295
8.700580038669246,73.90105127075412
8.70458030535369,73.60332724809071
8.708580572038137,72.82276298415496
8.712580838722582,71.32412340808082
8.716581105407029,70.31942468402049
8.720581372091473,68.79438535856785
8.72458163877592,67.23413945266554
8.728581905460365,66.448251998701
8.732582172144811,65.56192401444758
8.736582438829256,64.95686947808804
8.740582705513702,62.26946555054481
8.744582972198147,62.374040446797224
8.748583238882594,60.17746213332144
8.752583505567038,59.79210553028855
8.756583772251485,57.74088427634561
8.76058403893593,56.964514984982195
8.764584305620376,55.67475945881489
8.768584572304821,54.3789683712964
8.772584838989268,52.96525687372204
8.776585105673712,52.334901667565084
8.780585372358159,50.8921057087643
8.784585639042604,49.65677980590031
8.78858590572705,48.18800077681216
8.792586172411495,47.97215586669427
8.796586439095941,46.55397263280623
8.800586705780386,44.99777189941199
8.804586972464833,44.28555647867403
8.808587239149277,42.84659842444493
8.812587505833724,42.18704090542668
8.816587772518169,39.175820892873666
8.820588039202615,39.39494004873812
8.82458830588706,38.53921991928398
8.828588572571505,37.47145691242501
8.832588839255951,36.03156710013458
8.836589105940396,35.7125814787333
8.840589372624843,34.47141073665329
8.844589639309287,33.570322384841084
8.848589905993734,32.59509329803848
8.852590172678179,31.6394102641835
8.856590439362625,31.520179196095818
8.86059070604707,30.446100052280677
8.864590972731516,30.084239253979103
8.868591239415961,29.29728457491991
8.872591506100408,28.010520805169055
8.876591772784852,27.294336087504742
8.880592039469299,27.113566147404168
8.884592306153744,25.66989899702008
8.88859257283819,25.648740705200897
8.892592839522635,24.973186378435265
8.896593106207082,23.513527214837257
8.900593372891526,23.420482462560837
8.904593639575973,24.068790159015613
8.908593906260418,22.2890539787785
8.912594172944864,22.637714103512764
8.916594439629309,22.385458356653405
8.920594706313755,21.62479352971727
8.9245949729982,21.35266310793492
8.928595239682647,20.085002967799962
8.932595506367091,20.192555428431927
8.936595773051538,20.40734753737867
8.940596039735983,20.56032550113254
8.94459630642043,20.005800130801877
8.948596573104874,20.66072197064195
8.95259683978932,19.38282336499695
8.956597106473765,19.769156848495985
8.960597373158212,21.253859957893653
8.964597639842657,19.996362047157064
8.968597906527103,19.684587816286207
8.972598173211548,20.445315318426548
8.976598439895994,20.229317517224796
8.98059870658044,19.881051063238623
8.984598973264886,20.721486527801847
8.98859923994933,20.692991023609835
8.992599506633777,20.441689937423305
8.996599773318222,21.90510157243305
9.000600040002668,21.38809409847197
9.004600306687113,22.651649257184918
9.00860057337156,22.835391406947796
9.012600840056004,23.080243942899717
9.01660110674045,23.24707363218766
9.020601373424896,24.189122690678467
9.024601640109342,24.551340189544867
9.028601906793787,25.427635693034816
9.032602173478233,25.48579470233095
9.036602440162678,26.390032128013733
9.040602706847125,27.978141710480944
9.04460297353157,28.038047725988005
9.048603240216016,28.779776060490697
9.05260350690046,30.11286997088475
9.056603773584907,30.041102883075375
9.060604040269352,31.078954098956643
9.064604306953798,31.91700287795278
9.068604573638243,32.349927833415
9.07260484032269,33.11909396268979
9.076605107007135,34.91721954744074
9.080605373691581,35.46449148072021
9.084605640376026,36.81022613626452
9.088605907060472,38.58236631047418
9.092606173744917,39.6284872356085
9.096606440429364,40.59619018406743
9.100606707113808,41.59037140688021
9.104606973798255,42.62310164713265
9.1086072404827,44.007923600501414
9.112607507167146,44.20414317665321
9.116607773851591,45.1026256372574
9.120608040536037,46.95692238878783
9.124608307220482,47.76692583190449
9.128608573904929,47.900893148993106
9.132608840589374,50.25350896229286
9.13660910727382,51.20429846921969
9.140609373958265,52.944942350369516
9.14460964064271,53.81120378233318
9.148609907327156,54.42275435428654
9.1526101740116,55.82553712233807
9.156610440696047,57.75038069367554
9.160610707380492,57.362353220261305
9.164610974064939,58.70291781152645
9.168611240749383,60.100554204346544
9.17261150743383,61.979843112222106
9.176611774118275,62.459478612092106
9.180612040802721,64.13386914595522
9.184612307487166,66.1571716262463
9.188612574171612,67.29194665833819
9.192612840856057,68.31104164019807
9.196613107540504,69.34735363861873
9.200613374224949,69.64972451994197
9.204613640909395,71.51161383727865
9.20861390759384,72.8577730296152
9.212614174278286,73.20727892337308
9.216614440962731,74.40665824146572
9.220614707647178,75.69231864543255
9.224614974331622,76.24339215577307
9.228615241016069,78.40002144025125
9.232615507700514,79.38041535986837
9.23661577438496,79.75402169478386
9.240616041069405,81.7286135647274
9.244616307753851,82.90745558006381
9.248616574438296,83.22343192971432
9.252616841122743,84.65602986853472
9.256617107807187,85.59068651826408
9.260617374491634,86.00221804733748
9.264617641176079,87.67926581657109
9.268617907860525,87.29482899155444
9.27261817454497,87.93645469387863
9.276618441229417,91.17527950048961
9.280618707913861,90.88970246652086
9.284618974598308,90.93247473097213
9.288619241282753,92.26229462458032
9.2926195079672,92.88865689284835
9.296619774651644,92.99154756600983
9.30062004133609,93.26359537742773
9.304620308020535,94.11835467197564
9.308620574704982,95.74959184233045
9.312620841389426,96.29055651876658
9.316621108073873,95.85599077736288
9.320621374758318,96.83965068811928
9.324621641442764,96.92049896760005
9.328621908127209,97.63504867900147
9.332622174811656,98.30738666727076
9.3366224414961,98.97383748921244
9.340622708180547,98.05073769033632
9.344622974864992,98.49481781205544
9.348623241549438,98.48542614525721
9.352623508233883,99.0442612825968
9.35662377491833,99.13565451074687
9.360624041602774,98.90225341400713
9.36462430828722,99.92798995648577
9.368624574971665,100.57883840090729
9.372624841656112,100.30722047282224
9.376625108340557,99.57225867631041
9.380625375025003,100.1132131123841
9.384625641709448,100.03413730016153
9.388625908393895,100.00322861493225
9.39262617507834,99.99060900628798
9.396626441762786,99.78623245836754
9.40062670844723,98.71654381783077
9.404626975131677,98.57919164137795
9.408627241816122,98.51527167345236
9.412627508500568,99.57091906532983
9.416627775185013,98.03532208214546
9.42062804186946,97.92376481621562
9.424628308553904,96.97538016391256
9.428628575238351,96.81335522469597
9.432628841922796,95.84240573426338
9.436629108607242,96.07792149049116
9.440629375291687,94.99864779376354
9.444629641976134,95.34226246097684
9.448629908660578,94.87242565879728
9.452630175345025,93.68835701674573
9.45663044202947,92.35396593916501
9.460630708713914,91.24081126514453
9.46463097539836,92.0173539109064
9.468631242082806,89.79898313954044
9.472631508767252,89.30535138108239
9.476631775451697,88.904461696638
9.480632042136143,87.80889406353585
9.484632308820588,87.78887698910704
9.488632575505035,86.38472590061865
9.49263284218948,85.8536834528333
9.496633108873926,83.7211173043429
9.50063337555837,83.79606225055771
9.504633642242817,82.85937956286367
9.508633908927262,81.74107965704496
9.512634175611709,79.91513769870942
9.516634442296153,79.26300051328738
9.5206347089806,78.11093678392099
9.524634975665045,77.38148008523281
9.528635242349491,75.9839932040252
9.532635509033936,75.18899748680654
9.536635775718382,73.00409674838367
9.540636042402827,72.86850846910744
9.544636309087274,70.35027198827126
9.548636575771718,70.54242786886351
9.552636842456165,69.26839016728566
9.55663710914061,67.59895833920694
9.560637375825056,67.27921823092854
9.564637642509501,65.19613464634946
9.568637909193948,64.44408037075912
9.572638175878392,62.358094464458006
9.576638442562839,62.28092595170276
9.580638709247284,60.10085073711178
9.58463897593173,60.46494465685649
9.588639242616175,57.33495701179791
9.592639509300621,57.12039706672065
9.596639775985066,55.9540892566393
9.600640042669513,54.65649677636188
9.604640309353957,53.6793710188386
9.608640576038404,52.16639207069508
9.612640842722849,52.30864800968223
9.616641109407295,50.697638179811364
9.62064137609174,49.406039296213756
9.624641642776187,47.809838207923875
9.628641909460631,45.83411151772958
9.632642176145078,45.89065870305152
9.636642442829523,43.9906567564628
9.640642709513969,43.450741605020205
9.644642976198414,42.08501458882469
9.64864324288286,39.744072831860066
9.652643509567305,39.985966674185654
9.656643776251752,39.38437278739859
9.660644042936196,39.1185326826206
9.664644309620643,37.123532951899136
9.668644576305088,36.52278062333209
9.672644842989534,35.26978838240744
9.676645109673979,34.623775073467606
9.680645376358425,31.942829463930497
9.68464564304287,32.26037901185438
9.688645909727317,30.878918021734286
9.692646176411762,30.35699492751227
9.696646443096208,30.258847875221694
9.700646709780653,28.955419820328274
9.7046469764651,30.329564774158516
9.708647243149544,27.474766104548696
9.71264750983399,27.29165201026183
9.716647776518435,26.174939785868425
9.720648043202882,25.026308845878546
9.724648309887327,24.62501502945564
9.728648576571773,25.59678690356368
9.732648843256218,23.875668132022035
9.736649109940664,24.195191840133393
9.74064937662511,22.814803864438183
9.744649643309556,21.934573304011472
9.748649909994,21.758044355022125
9.752650176678447,21.75560289671836
9.756650443362892,22.266992390110122
9.760650710047338,21.551148547533188
9.764650976731783,20.209337502920818
9.768651243416228,20.974941875007552
9.772651510100674,20.636080645455355
9.776651776785119,20.46847846867785
9.780652043469566,20.400577950632467
9.78465231015401,19.455708291802214
9.788652576838457,20.408562655807632
9.792652843522902,19.075902586905
9.796653110207348,20.180846676464583
9.800653376891793,20.45893200499516
9.80465364357624,21.347342160154234
9.808653910260684,20.658043719961146
9.81265417694513,21.479803422968622
9.816654443629576,20.60880811162819
9.820654710314022,21.330882500251406
9.824654976998467,20.206995751812016
9.828655243682913,20.85458012398899
9.832655510367358,21.625087963033785
9.836655777051805,21.78268549911119
9.84065604373625,21.411345579263877
9.844656310420696,23.336273103037776
9.84865657710514,24.22036310151917
9.852656843789587,24.364398499542318
9.856657110474032,24.398919181059167
9.860657377158478,25.740706780162128
9.864657643842923,25.96360638753464
9.86865791052737,27.113312359236325
9.872658177211814,27.572050256334297
9.876658443896261,27.84012966404689
9.880658710580706,28.675112497480693
9.884658977265152,29.33914160035144
9.888659243949597,30.190329126885928
9.892659510634044,30.518057377348207
9.896659777318488,31.97664963436832
9.900660044002935,33.270625563255535
9.90466031068738,33.412663126860195
9.908660577371826,33.81256553752632
9.912660844056271,36.1426001012708
9.916661110740717,36.98630169182824
9.920661377425162,37.708921093221505
9.924661644109609,39.02809869502154
9.928661910794053,40.019040106601295
9.9326621774785,40.21486460206768
9.936662444162945,41.93533875975773
9.940662710847391,43.279517445719684
9.944662977531836,43.08585873569986
9.948663244216283,44.203842897567064
9.952663510900727,46.58427821196132
9.956663777585174,46.636972102260415
9.960664044269619,48.56606189252953
9.964664310954065,49.403992501547954
9.96866457763851,50.88918162203172
9.972664844322956,51.217959296972126
9.976665111007401,53.33132365009725
9.980665377691848,54.23747607808358
9.984665644376292,54.80213271030171
9.988665911060739,56.89101682736122
9.992666177745184,57.98466107002063
9.99666644442963,58.95220343797915
10.000666711114075,59.9049624001675
10.004666977798522,60.32896500143214
10.008667244482966,62.98669953634872
10.012667511167413,64.46428760586357
10.016667777851858,65.25802582763603
10.020668044536304,66.82651805023976
10.024668311220749,66.64507799947744
10.028668577905195,68.60983380663585
10.03266884458964,69.52974200316083
10.036669111274087,71.20416761057918
10.040669377958531,72.03411995179127
10.044669644642978,72.98131358461458
10.048669911327423,73.91829402547555
10.05267017801187,73.77356514338823
10.056670444696314,76.32496468377869
10.06067071138076,77.488505629285
10.064670978065205,78.67957610940141
10.068671244749652,80.12695916260084
10.072671511434097,80.5562484826067
10.076671778118543,82.0112984269173
10.080672044802988,82.5194812012266
10.084672311487433,84.04245711510578
10.08867257817188,85.21761276228598
10.092672844856324,85.89330278334397
10.09667311154077,86.93042893821777
10.100673378225215,87.31051987337156
10.104673644909662,88.81403591883925
10.108673911594106,88.67725895518913
10.112674178278553,90.0400089769725
10.116674444962998,91.3340748247994
10.120674711647444,92.13690176084404
10.124674978331889,92.1776674670514
10.128675245016336,93.14917150358761
10.13267551170078,93.12596167747043
10.136675778385227,92.9345038660614
10.140676045069672,95.58034309604817
10.144676311754118,95.32944643462446
10.148676578438563,95.81675419718069
10.15267684512301,96.88026707931607
10.156677111807454,96.64974347265395
10.1606773784919,98.48579805352684
10.164677645176345,98.88375586481064
10.168677911860792,98.72520326216863
10.172678178545237,99.58726134500097
10.176678445229683,98.6521422309475
10.180678711914128,99.73785273037086
10.184678978598575,99.66717210909574
10.18867924528302,99.12293219644198
10.192679511967466,99.72382356914406
10.19667977865191,101.26116602115184
10.200680045336357,100.79484562381846
10.204680312020802,99.57756660657132
10.208680578705248,99.66919655120411
10.212680845389693,100.95019854809236
10.21668111207414,100.55758958573355
10.220681378758584,99.41889490259518
10.224681645443031,99.80579177639713
10.228681912127476,98.88702642100759
10.232682178811922,99.36695435955991
10.236682445496367,98.23621037817331
10.240682712180813,98.47103767887093
10.244682978865258,98.35257336649804
10.248683245549705,98.10524260856485
10.25268351223415,99.26780953276196
10.256683778918596,97.12478852877264
10.26068404560304,97.72697694941373
10.264684312287487,96.1005309009374
10.268684578971932,96.65125634549749
10.272684845656379,95.52851571914047
10.276685112340823,94.99990312872188
10.28068537902527,93.81459965321528
10.284685645709715,93.76697261544152
10.288685912394161,92.61953503469238
10.292686179078606,91.52595627469663
10.296686445763052,91.64429294977309
10.300686712447497,90.71254011303559
10.304686979131944,89.2906270982785
10.308687245816389,89.40509511483047
10.312687512500835,88.18638721668641
10.31668777918528,87.46967263517905
10.320688045869726,86.60941262414656
10.324688312554171,85.72917749086577
10.328688579238618,84.34374733729574
10.332688845923062,83.47459686360568
10.336689112607509,82.7982189482302
10.340689379291954,82.02311485158275
10.3446896459764,80.54390641743197
10.348689912660845,79.9555830289525
10.352690179345291,78.21894058679968
10.356690446029736,77.59051156860431
10.360690712714183,75.79083903086284
10.364690979398627,75.70057203060918
10.368691246083074,73.9743787500109
10.372691512767519,73.13049194834146
10.376691779451965,71.57249910670173
10.38069204613641,70.7196836022862
10.384692312820857,69.31448113371135
10.388692579505301,67.93620290665015
10.392692846189748,67.01919823820606
10.396693112874193,66.14255455795416
10.400693379558637,64.77164869572688
10.404693646243084,63.782654923499045
10.408693912927529,62.14805223600773
10.412694179611975,61.60954837789134
10.41669444629642,60.915770944151255
10.420694712980866,60.647382025031966
10.424694979665311,58.49508341063889
10.428695246349758,57.276827087451004
10.432695513034203,55.03011757974968
10.436695779718649,54.14359713163684
10.440696046403094,53.20760723303448
10.44469631308754,51.602775351660654
10.448696579771985,51.22830694792302
10.452696846456432,49.01385744439872
10.456697113140876,48.044179619345684
10.460697379825323,48.764302312510814
10.464697646509768,45.757632107904286
10.468697913194214,44.50981648447645
10.472698179878659,42.31993497135512
10.476698446563105,42.4820004404807
10.48069871324755,41.40352611914613
10.484698979931997,39.8445197264199
10.488699246616441,39.49632882398171
10.492699513300888,38.332504784401
10.496699779985333,37.67218557352665
10.50070004666978,37.32217122589777
10.504700313354224,35.2732972833913
10.50870058003867,33.96844416288973
10.512700846723115,32.80789814137585
10.516701113407562,32.723570531734815
10.520701380092007,32.30555854020369
10.524701646776453,31.254318866136774
10.528701913460898,29.40627770719375
10.532702180145344,29.715777482907313
10.53670244682979,28.8701076439998
10.540702713514236,27.524716711736108
10.54470298019868,26.7774434380165
10.548703246883127,26.23823241626833
10.552703513567572,25.50569205783784
10.556703780252018,24.820068072964844
10.560704046936463,25.182175854931952
10.56470431362091,24.35556335515803
10.568704580305354,23.488259604681254
10.5727048469898,23.22622892115281
10.576705113674246,22.72839788021197
10.580705380358692,22.244436517189143
10.584705647043137,21.466056629254044
10.588705913727583,21.57869508855656
10.592706180412028,20.51742056895653
10.596706447096475,20.710344677041057
10.60070671378092,20.14177526360878
10.604706980465366,20.80239712366958
10.60870724714981,20.77279667586386
10.612707513834257,20.09625699344289
10.616707780518702,19.813002034743764
10.620708047203149,19.96084213935779
10.624708313887593,19.926445521927644
10.62870858057204,19.500026156007173
10.632708847256485,20.45659368732613
10.636709113940931,20.02872151007948
10.640709380625376,20.288050884897494
10.644709647309822,20.430143346236672
10.648709913994267,20.382926383648797
10.652710180678714,20.047281648751774
10.656710447363158,21.36768646781118
10.660710714047605,21.316960427890802
10.66471098073205,22.066877694253794
10.668711247416496,22.801100303177048
10.672711514100941,22.156731781427766
10.676711780785388,22.77547707201604
10.680712047469832,23.625805100540074
10.684712314154279,23.926319723630712
10.688712580838724,24.97785277487148
10.69271284752317,25.193561400473417
10.696713114207615,25.931963481326033
10.700713380892061,26.959866171162062
10.704713647576506,27.217657126240848
10.708713914260953,27.512726889365698
10.712714180945397,28.301335760852858
10.716714447629842,28.04454031283123
10.720714714314289,30.329398462789328
10.724714980998733,31.213392520138
10.72871524768318,31.187772830789505
10.732715514367625,32.34807164995297
10.736715781052071,33.52239841377213
10.740716047736516,34.37269176913884
10.744716314420963,36.69947263856754
10.748716581105407,36.55255013324081
10.752716847789854,37.64957090456901
10.756717114474299,38.95080589618283
10.760717381158745,38.55254315894769
10.76471764784319,40.025541328689684
10.768717914527636,41.37020584662831
10.772718181212081,42.10151780522749
10.776718447896528,42.75510353049934
10.780718714580972,44.50326091445857
10.784718981265419,45.073003707020526
10.788719247949864,47.41326106235355
10.79271951463431,47.58934359563645
10.796719781318755,48.20073932887016
10.800720048003202,51.047335358529594
10.804720314687646,51.806120276257616
10.808720581372093,53.16862570727719
10.812720848056538,53.76052237850059
10.816721114740984,55.46538126893713
10.820721381425429,56.79850919079093
10.824721648109875,57.89408881503533
10.82872191479432,58.464863053475305
10.832722181478767,59.40186496214163
10.836722448163211,60.95599670171285
10.840722714847658,62.351650577826604
10.844722981532103,63.51755959040096
10.84872324821655,63.89158936811266
10.852723514900994,66.87317631513781
10.85672378158544,67.3038766598433
10.860724048269885,68.37684417856563
10.864724314954332,68.84023052033514
10.868724581638777,70.96739180935346
10.872724848323223,70.96112196611989
10.876725115007668,73.0988570901259
10.880725381692114,74.65996214047601
10.884725648376559,75.2067198628414
10.888725915061006,76.30116103776479
10.89272618174545,77.52163790479302
10.896726448429897,76.87753154749767
10.900726715114342,79.62639598006072
10.904726981798788,80.04837485250752
10.908727248483233,81.0218982782943
10.91272751516768,82.53546613064752
10.916727781852124,82.70076501531145
10.92072804853657,83.85885337559512
10.924728315221016,85.8395861422905
10.928728581905462,85.30094382084395
10.932728848589907,87.37883055438986
10.936729115274353,87.741129195274
10.940729381958798,89.1785525749457
10.944729648643245,89.7744744065952
10.94872991532769,90.18925058363267
10.952730182012136,91.62404301789016
10.95673044869658,91.20545764757365
10.960730715381027,92.52610330525258
10.964730982065472,93.86445513398058
10.968731248749918,93.68204902398607
10.972731515434363,94.67976762240174
10.97673178211881,95.89710577589153
10.980732048803254,95.2304711511837
10.984732315487701,96.79255673595019
10.988732582172146,96.8280375352515
10.992732848856592,97.2837986633472
10.996733115541037,97.94512766007978
11.000733382225484,97.0558233976106
11.004733648909928,97.87121980389341
11.008733915594375,98.33551162872504
11.01273418227882,98.89967822371021
11.016734448963266,99.36625380524748
11.020734715647711,99.67187329698083
11.024734982332157,99.44834156965501
11.028735249016602,99.81584793649135
11.032735515701047,99.73046048259083
11.036735782385493,100.25662948329044
11.040736049069938,98.97812414461875
11.044736315754385,99.73425239705863
11.04873658243883,100.88082293953424
11.052736849123276,100.00125871224515
11.05673711580772,100.26374587405492
11.060737382492167,100.07041985658428
11.064737649176612,98.9346337697706
11.068737915861059,98.3140938822193
11.072738182545503,98.68875723798172
11.07673844922995,99.23834872673986
11.080738715914395,97.62363821273011
11.084738982598841,97.55264263535003
11.088739249283286,97.09627356860625
11.092739515967732,97.14867414492448
11.096739782652177,97.91418445466893
11.100740049336624,96.48149602270902
11.104740316021068,95.61521322497036
11.108740582705515,94.85798887538537
11.11274084938996,93.9906246040555
11.116741116074406,93.35924384982063
11.120741382758851,93.03718351047759
11.124741649443298,91.6919669292575
11.128741916127742,91.95280739877259
11.132742182812189,90.87327435586842
11.136742449496634,90.04598386485512
11.14074271618108,89.90795755780876
11.144742982865525,88.47307237980664
11.148743249549971,87.897418494304
11.152743516234416,86.92726245853365
11.156743782918863,85.49013867043588
11.160744049603307,84.58750766037512
11.164744316287754,83.68502903738394
11.168744582972199,82.68275893884412
11.172744849656645,81.74832226945394
11.17674511634109,80.08664487814687
11.180745383025537,80.28235362344002
11.184745649709981,78.2703542845386
11.188745916394428,78.09005709419597
11.192746183078873,77.10760621243125
11.19674644976332,75.4133248537415
11.200746716447764,74.58368634279658
11.20474698313221,74.44875631803772
11.208747249816655,72.25091603093935
11.212747516501102,70.52113634861263
11.216747783185546,70.10485878147564
11.220748049869993,68.63602685329735
11.224748316554438,67.60488097676829
11.228748583238884,65.97223185751093
11.232748849923329,65.85113572723557
11.236749116607776,63.407419926436155
11.24074938329222,63.76065765421829
11.244749649976667,60.62258605984477
11.248749916661112,60.930334345547756
11.252750183345558,58.36709815914481
11.256750450030003,58.12378545321054
11.26075071671445,56.32707981414429
11.264750983398894,55.839703970896515
11.26875125008334,55.100071637896505
11.272751516767785,53.39995713476101
11.276751783452232,51.24320708388266
11.280752050136677,51.78750248291692
11.284752316821123,49.84817722845582
11.288752583505568,48.9457161461479
11.292752850190015,48.135423665475045
11.29675311687446,46.84070288833233
11.300753383558906,44.90248005487801
11.30475365024335,43.17880120280596
11.308753916927797,42.37137441846709
11.312754183612242,41.12077662647994
11.316754450296688,40.42401249947106
11.320754716981133,39.599014475575785
11.32475498366558,38.11349842721247
11.328755250350024,38.111280817698464
11.332755517034471,36.08116512316124
11.336755783718916,35.25303398703706
11.340756050403362,34.06584792905895
11.344756317087807,34.039049923723724
11.348756583772252,32.75157690497509
11.352756850456698,31.5952289752048
11.356757117141143,31.034465796909057
11.36075738382559,30.25050923834515
11.364757650510034,29.90662787636356
11.36875791719448,29.793673050173958
11.372758183878926,27.482846464721064
11.376758450563372,27.694175695753856
11.380758717247817,27.430074188681285
11.384758983932263,26.354490564982886
11.388759250616708,23.84653734989579
11.392759517301155,24.220124271756994
11.3967597839856,24.266722910039892
11.400760050670046,23.971904732595
11.40476031735449,23.71113489482411
11.408760584038937,22.08721176248813
11.412760850723382,22.72235384876791
11.416761117407829,21.22149659748546
11.420761384092273,21.341396774149043
11.42476165077672,21.445521803998066
11.428761917461165,21.365136902232194
11.432762184145611,20.57559902589703
11.436762450830056,20.2738547504015
11.440762717514502,20.2320338081547
11.444762984198947,20.109902871311714
11.448763250883394,20.141458928733307
11.452763517567838,19.768069900625544
11.456763784252285,20.207643231609605
11.46076405093673,19.342921519576933
11.464764317621176,20.413586138526142
11.468764584305621,20.060875624834775
11.472764850990067,20.419445117893968
11.476765117674512,20.577110420342343
11.480765384358959,19.95868892306717
11.484765651043404,21.300811266888864
11.48876591772785,21.204433207155787
11.492766184412295,21.247404974349383
11.496766451096741,21.704999513139327
11.500766717781186,22.946583781580937
11.504766984465633,22.238111818512166
11.508767251150077,23.417851258805747
11.512767517834524,23.021749544152506
11.516767784518969,23.400641236448784
11.520768051203415,23.962393588380113
11.52476831788786,24.37574259942116
11.528768584572306,25.98171954789913
11.532768851256751,26.331808843437948
11.536769117941198,27.427714805922076
11.540769384625643,27.12423357413736
11.544769651310089,28.17773663987083
11.548769917994534,30.056030469571766
11.55277018467898,30.063120936753908
11.556770451363425,30.650775444757453
11.560770718047872,30.815731911955766
11.564770984732316,32.27619197305957
11.568771251416763,32.454554362688455
11.572771518101208,33.270517357105255
11.576771784785654,34.33573163321011
11.580772051470099,35.545221216664075
11.584772318154545,36.72347957647669
11.58877258483899,38.21473277467321
11.592772851523437,39.1317749406028
11.596773118207881,39.71641300381893
11.600773384892328,40.74742216047239
11.604773651576773,42.03145615735811
11.60877391826122,42.74818007505158
11.612774184945664,43.69983323203929
11.61677445163011,45.118803202701294
11.620774718314555,46.46074005595452
11.624774984999002,48.70215440570739
11.628775251683447,48.80816380326521
11.632775518367893,50.22016202818563
11.636775785052338,51.98639522742291
11.640776051736784,52.50171151272766
11.64477631842123,53.495770427135824
11.648776585105676,54.02101834918342
11.65277685179012,55.21061225846002
11.656777118474567,57.66165872935396
11.660777385159012,57.58195435672359
11.664777651843456,58.96702354961144
11.668777918527903,60.93327647466097
11.672778185212348,61.875004897415515
11.676778451896794,62.33156657682521
11.680778718581239,63.74953501248361
11.684778985265686,65.79477062266783
11.68877925195013,67.7105495925237
11.692779518634577,67.91628101055156
11.696779785319022,69.34434142725935
11.700780052003468,70.54301386857871
11.704780318687913,71.05743025571556
11.70878058537236,72.79543795140125
11.712780852056804,73.57493942030344
11.71678111874125,74.54655789358652
11.720781385425695,75.18720183076331
11.724781652110142,76.5469551242363
11.728781918794587,78.63695487104452
11.732782185479033,77.76617923267152
11.736782452163478,79.66856585020767
11.740782718847925,81.68278000575427
11.74478298553237,81.53384678991102
11.748783252216816,83.00041974688189
11.75278351890126,83.84452799736455
11.756783785585707,84.6997882791432
11.760784052270152,86.62366337295418
11.764784318954598,87.08321978668349
11.768784585639043,88.07190425326716
11.77278485232349,88.25427083363672
11.776785119007934,90.25642816606006
11.780785385692381,90.38393604403194
11.784785652376826,91.49071724728073
11.788785919061272,92.48355022026625
11.792786185745717,92.97533167653465
11.796786452430164,92.42155245504064
11.800786719114608,93.91559129284539
11.804786985799055,93.43870356987081
11.8087872524835,94.57565376078284
11.812787519167946,95.73321811953132
11.81678778585239,95.85065805467987
11.820788052536837,96.52411057958417
11.824788319221282,96.8960303621259
11.828788585905729,97.35739726957244
11.832788852590173,96.95985025266452
11.83678911927462,98.15981542927891
11.840789385959065,99.49671887016655
11.844789652643511,99.25650912059223
11.848789919327956,99.69619340983022
11.852790186012403,99.1747806336095
11.856790452696847,99.91227853622335
11.860790719381294,100.56060556214848
11.864790986065739,99.6462220521599
11.868791252750185,100.61616727829995
11.87279151943463,100.27919482887408
11.876791786119076,100.34454436263145
11.880792052803521,100.43250534341622
11.884792319487968,99.08155190302384
11.888792586172412,99.28410139154876
11.892792852856859,99.5771876481189
11.896793119541304,98.62629389935573
11.90079338622575,98.84954543677604
11.904793652910195,99.43179647584924
11.908793919594642,98.15772282186293
11.912794186279086,98.25169786415431
11.916794452963533,98.72832220147427
11.920794719647978,97.53821445203384
11.924794986332424,96.07170218882654
11.928795253016869,96.49238336674628
11.932795519701315,95.96628926782431
11.93679578638576,95.24631166007657
11.940796053070207,96.80282430782268
11.944796319754651,93.78617381730957
11.948796586439098,93.60543715295272
11.952796853123543,93.16819135636436
11.95679711980799,91.45421682317503
11.960797386492434,92.50765883970493
11.96479765317688,90.6892747259113
11.968797919861325,90.8322047539188
11.972798186545772,89.66235379933221
11.976798453230217,88.77846656010317
11.980798719914661,87.97060626715036
11.984798986599108,87.89189312450728
11.988799253283553,86.35251161607478
11.992799519967999,85.2067187601048
11.996799786652444,84.64413390929637
12.00080005333689,82.96751143634246
12.004800320021335,82.76773105822834
12.008800586705782,80.69549143419529
12.012800853390226,79.42396604954047
12.016801120074673,78.41556590757911
12.020801386759118,77.62591235423605
12.024801653443564,76.39400635922173
12.028801920128009,76.17478927741185
12.032802186812456,75.42671173795931
12.0368024534969,74.1337672165631
12.040802720181347,72.01359948506763
12.044802986865792,71.91342304894056
12.048803253550238,70.26647730359068
12.052803520234683,69.61552605422108
12.05680378691913,68.39958963641972
12.060804053603574,66.35762125714952
12.06480432028802,66.25906947207403
12.068804586972465,64.37455310555451
12.072804853656912,64.0461806257856
12.076805120341357,62.503757410932856
12.080805387025803,60.80607332917464
12.084805653710248,59.84704455656826
12.088805920394694,59.25992162249841
12.09280618707914,57.75213390161107
12.096806453763586,54.93486253700149
12.10080672044803,54.93960664566973
12.104806987132477,52.82824979971741
12.108807253816922,52.83821680123707
12.112807520501368,50.869182423602204
12.116807787185813,50.04491856603709
12.12080805387026,48.1897794089249
12.124808320554704,47.251680582775556
12.128808587239151,46.469743238692644
12.132808853923596,44.993887092103584
12.136809120608042,44.63072744181472
12.140809387292487,43.24267396231458
12.144809653976933,41.98447849044984
12.148809920661378,41.00037163053517
12.152810187345825,39.93198603230561
12.15681045403027,38.957888275806965
12.160810720714716,38.543714536880614
12.16481098739916,37.35535450321256
12.168811254083607,36.220362765203674
12.172811520768052,35.51736617120534
12.176811787452499,34.0381615307394
12.180812054136943,33.17136111999955
12.18481232082139,31.71741653526692
12.188812587505835,31.601064913040013
12.192812854190281,30.134947834971175
12.196813120874726,29.32041841637459
12.200813387559172,29.173029291112602
12.204813654243617,29.310897780613157
12.208813920928064,28.636055813281622
12.212814187612508,27.667189099913898
12.216814454296955,26.013055269822747
12.2208147209814,25.99375223202178
12.224814987665846,25.408631392031396
12.228815254350291,24.43243831093739
12.232815521034738,23.20078924229051
12.236815787719182,23.084586943882364
12.240816054403629,22.52048663846668
12.244816321088074,22.309986885185253
12.24881658777252,21.588482027439884
12.252816854456965,21.74138489543864
12.256817121141411,21.085530503319355
12.260817387825856,20.852230094441193
12.264817654510303,19.771692311260537
12.268817921194747,20.691601171340388
12.272818187879194,20.86819617824771
12.276818454563639,19.679567349275544
12.280818721248085,20.323291852751275
12.28481898793253,19.286650711063444
12.288819254616975,20.121164486916097
12.292819521301421,18.491601537974464
12.296819787985866,19.953754945567248
12.300820054670313,20.39790478284327
12.304820321354757,20.366989733981633
12.308820588039204,19.807765881283903
12.312820854723649,20.609244437420113
12.316821121408095,21.0818082645354
12.32082138809254,21.124484668443923
12.324821654776986,21.352517806435507
12.328821921461431,21.647669735175906
12.332822188145878,21.618723924618845
12.336822454830322,22.52986004626778
12.340822721514769,21.839720956403475
12.344822988199214,23.346468036846403
12.34882325488366,23.104148650508456
12.352823521568105,24.54518439825234
12.356823788252552,24.74951227122889
12.360824054936996,25.971642712212176
12.364824321621443,26.01358839959717
12.368824588305888,26.52935792599592
12.372824854990334,26.921235643643534
12.376825121674779,27.274183587180055
12.380825388359225,28.19897146193487
12.38482565504367,29.613389810633176
12.388825921728117,30.26835390808522
12.392826188412561,31.437089988550188
12.396826455097008,31.93676648571691
12.400826721781453,32.99860549393769
12.4048269884659,34.53551616584815
12.408827255150344,34.091196365960364
12.41282752183479,35.87319372012561
12.416827788519235,36.29837469222437
12.420828055203682,38.07059475680305
12.424828321888127,38.407335742210066
12.428828588572573,40.015689142453304
12.432828855257018,40.945709968395896
12.436829121941464,42.186314872945935
12.44082938862591,43.40723831372852
12.444829655310356,43.71671099945464
12.4488299219948,44.5324473177932
12.452830188679247,46.7178061874848
12.456830455363692,46.98682761066325
12.460830722048138,48.98496552396145
12.464830988732583,49.96208243517317
12.46883125541703,49.6752861790976
12.472831522101474,52.34620571159095
12.47683178878592,52.98426663178776
12.480832055470366,54.1310946543463
12.484832322154812,55.13564803536801
12.488832588839257,56.20417658003291
12.492832855523703,58.19883848151048
12.496833122208148,58.62512732959635
12.500833388892595,60.6407143574197
12.50483365557704,61.71781230364934
12.508833922261486,62.46684625857408
12.51283418894593,63.80980476967606
12.516834455630377,65.89604152387376
12.520834722314822,66.04284259318611
12.524834988999269,67.90226595895138
12.528835255683713,69.47536354555011
12.53283552236816,70.94121919649277
12.536835789052605,71.21287632605129
12.540836055737051,71.19268441961792
12.544836322421496,73.6199027525779
12.548836589105942,74.20326718774167
12.552836855790387,75.1597220062016
12.556837122474834,76.5368381893002
12.560837389159278,77.89961033825928
12.564837655843725,78.31361154252068
12.56883792252817,80.20123551122671
12.572838189212616,80.91468571416078
12.576838455897061,81.70282479598245
12.580838722581507,83.3244102154772
12.584838989265952,84.57613322407671
12.588839255950399,84.93531695936785
12.592839522634844,86.20052002107776
12.59683978931929,85.40969902080045
12.600840056003735,88.13970079304403
12.60484032268818,88.13646660496
12.608840589372626,89.00124637269282
12.61284085605707,89.61205190524385
12.616841122741517,91.51756919213044
12.620841389425962,91.98833239992994
12.624841656110409,91.94821379143244
12.628841922794853,93.35727029238106
12.6328421894793,94.36051804292396
12.636842456163745,95.04755790991635
12.640842722848191,94.9820641782506
12.644842989532636,95.44020154855208
12.648843256217082,96.20493458939075
12.652843522901527,96.70942232054837
12.656843789585974,97.31679458531342
12.660844056270419,97.9313207990058
12.664844322954865,98.04538543225401
12.66884458963931,98.14892749274894
12.672844856323756,98.45448098236245
12.676845123008201,99.26803453549486
12.680845389692648,98.57927035651426
12.684845656377092,100.4331260837335
12.688845923061539,99.14563411946241
12.692846189745984,99.07866872785307
12.69684645643043,100.17995790645898
12.700846723114875,100.33114033564023
12.704846989799321,100.28038817495415
12.708847256483766,99.78940995869787
12.712847523168213,99.60229855506493
12.716847789852658,100.47043650726425
12.720848056537104,100.40170074813757
12.724848323221549,100.31728730663647
12.728848589905995,99.72316604193736
12.73284885659044,98.99803293631054
12.736849123274887,99.68163771464876
12.740849389959331,99.08232032710013
12.744849656643778,97.59425430212737
12.748849923328223,98.65709161274572
12.75285019001267,97.71487156005013
12.756850456697114,98.2372364458741
12.76085072338156,96.92498662915953
12.764850990066005,96.14161220854542
12.768851256750452,96.13105946366105
12.772851523434896,95.28936576808317
12.776851790119343,93.87138671501124
12.780852056803788,94.31200166221488
12.784852323488234,93.85181813271525
12.788852590172679,92.86011235273922
12.792852856857126,92.40773565995309
12.79685312354157,91.83558453849064
12.800853390226017,90.89434566350457
12.804853656910462,89.75489773844618
12.808853923594908,88.87264828560751
12.812854190279353,87.83407223088848
12.8168544569638,87.2060998052899
12.820854723648244,85.91665027555648
12.82485499033269,85.77436490122514
12.828855257017135,84.75815846255834
12.832855523701582,83.05179659113148
12.836855790386027,81.86589732835384
12.840856057070473,81.35131350297593
12.844856323754918,80.2563107382525
12.848856590439365,79.58566701113767
12.85285685712381,78.07775748269819
12.856857123808256,77.73834582481345
12.8608573904927,76.50307581101654
12.864857657177147,75.17811774019303
12.868857923861592,73.93097328469891
12.872858190546038,73.36503287561733
12.876858457230483,72.40877659875704
12.88085872391493,71.02145149432933
12.884858990599374,69.77718701526078
12.888859257283821,68.29931966384636
12.892859523968266,67.9980344686908
12.896859790652712,65.75168837275191
12.900860057337157,65.28052710430497
12.904860324021604,63.40255365209197
12.908860590706048,62.95543302205794
12.912860857390495,61.12208509968458
12.91686112407494,60.55057632634809
12.920861390759384,59.136192849725425
12.92486165744383,58.025629186287844
12.928861924128276,56.55713293952773
12.932862190812722,55.18708214699401
12.936862457497167,54.306734935128915
12.940862724181613,53.2885725457836
12.944862990866058,51.064601986107135
12.948863257550505,50.441742075184855
12.95286352423495,48.96018660759458
12.956863790919396,47.59251703426555
12.96086405760384,46.082242634874596
12.964864324288287,45.64574318705846
12.968864590972732,44.4073728612344
12.972864857657179,42.94978006591335
12.976865124341623,42.18660301566073
12.98086539102607,41.310462162149705
12.984865657710515,40.14232649336154
12.988865924394961,39.17824717295817
12.992866191079406,38.32043973008528
12.996866457763852,37.363540518395276
13.000866724448297,35.276897122085394
13.004866991132744,34.88013436677249
13.008867257817188,34.59434330715856
13.012867524501635,33.97670074526976
13.01686779118608,31.712599443926365
13.020868057870526,31.94545690829976
13.024868324554971,30.54212691123172
13.028868591239418,30.53851617910186
13.032868857923862,28.62325756413957
13.036869124608309,28.27678780637313
13.040869391292754,28.56854583125072
13.0448696579772,27.134196329082137
13.048869924661645,26.507218079167405
13.052870191346091,24.857685829677553
13.056870458030536,25.54792037109786
13.060870724714983,23.514762202236163
13.064870991399427,24.08682421350064
13.068871258083874,23.752550006679733
13.072871524768319,22.62177548728098
13.076871791452765,23.02717044307327
13.08087205813721,22.387573863949765
13.084872324821657,22.697508908722124
13.088872591506101,21.57296419437337
13.092872858190548,21.56543666748257
13.096873124874993,20.380335963631627
13.100873391559439,20.84389115673986
13.104873658243884,20.87654790033502
13.10887392492833,20.06777693205561
13.112874191612775,19.602315500539994
13.116874458297222,20.57393496637461
13.120874724981666,20.293232082277786
13.124874991666113,20.00668517338527
