Time (s),ECG Signal (mV)
0.0,60.24835707650561
0.004001600640256103,60.03143893684481
0.008003201280512205,60.52498580814099
0.012004801920768308,61.0632256474186
0.01600640256102441,60.28520130468244
0.020008003201280513,60.38577424335858
0.024009603841536616,61.393010680605514
0.028011204481792718,61.08767937396661
0.03201280512204882,60.56977810279494
0.03601440576230493,61.17634351810398
0.040016006402561026,60.773897129004155
0.044017607042817125,60.873277220686155
0.04801920768307323,61.32765236272759
0.05202080832332934,60.35055260599642
0.056022408963585436,60.54524704990032
0.060024009603841535,61.22706654041417
0.06402561024409764,61.10228954944337
0.06802721088435375,61.86631341089431
0.07202881152460985,61.35565153700868
0.07603041216486595,61.203974114305446
0.08003201280512205,62.743400664585835
0.08403361344537816,61.99812573497523
0.08803521408563425,62.24520224767103
0.09203681472589036,61.59947433250207
0.09603841536614646,62.1400527290475
0.10004001600640257,62.568085802624644
0.10404161664665867,62.037492251711704
0.10804321728691477,62.901186063977946
0.11204481792717087,62.5133485715971
0.11604641856742698,62.768134116528834
0.12004801920768307,62.71342233915822
0.12404961984793918,64.04069033633064
0.12805122048819528,63.20805854156408
0.13205282112845138,62.78618727658784
0.1360544217687075,63.82652982787673
0.1400560224089636,62.90502858770881
0.1440576230492197,63.7200530277954
0.1480592236894758,62.735934129441546
0.1520608243297319,63.15180063841501
0.156062424969988,64.01442462972913
0.1600640256102441,64.38530289537582
0.1640656262505002,64.201803951572
0.16806722689075632,64.1583198549198
0.1720688275310124,64.16558968068131
0.1760704281712685,63.67685078073504
0.18007202881152462,64.15613200227305
0.1840736294517807,64.38564850285564
0.18807523009203683,65.24441360300864
0.19207683073229292,64.98751642451509
0.19607843137254902,64.03401154890719
0.20008003201280514,65.17736688412013
0.20408163265306123,64.92254532717207
0.20808323329331735,64.8763546996554
0.21208483393357344,65.62035011067927
0.21608643457382953,65.92967439773973
0.22008803521408565,65.97944314003769
0.22408963585434175,65.19378790679991
0.22809123649459784,65.55834858277022
0.23209283713485396,65.97810847366873
0.23609443777511005,66.39973456464757
0.24009603841536614,65.77182275222566
0.24409763905562226,66.0179902511511
0.24809923969587835,65.65702349065813
0.25210084033613445,65.71141964545717
0.25610244097639057,66.81507796225216
0.2601040416166467,67.18618664493435
0.26410564225690275,66.57127200806023
0.26810724289715887,67.20821218743674
0.272108843537415,66.98639002518912
0.27611044417767105,66.58209538743493
0.2801120448179272,67.18439267109686
0.2841136454581833,67.87170848062499
0.2881152460984394,67.18372760652177
0.2921168467386955,68.08286735677885
0.2961184473789516,66.08953172849525
0.3001200480192077,67.90916750832368
0.3041216486594638,67.64050436512903
0.3081232492997199,67.54619370557872
0.312124849939976,67.84024566976241
0.3161264505802321,66.89919945201954
0.3201280512204882,67.88171669694141
0.32412965186074433,68.26862713875899
0.3281312525010004,68.92748494532685
0.3321328531412565,68.02781811911292
0.33613445378151263,67.98106934529527
0.3401360544217687,68.23274753482919
0.3441376550620248,69.03958339526369
0.34813925570228094,68.84445991980839
0.352140856342537,68.5133514196417
0.3561424569827931,69.13295690216229
0.36014405762304924,69.02289751179755
0.36414565826330536,69.55666005160387
0.3681472589035614,68.81923247692576
0.37214885954381755,69.10429144738534
0.37615046018407367,69.16987335157683
0.38015206082432973,68.73191565389101
0.38415366146458585,69.70941914074973
0.38815526210484197,69.78951206948305
0.39215686274509803,69.7591055326563
0.39615846338535415,69.73675793159295
0.4001600640256103,69.2438065278312
0.40416166466586634,69.83854672870082
0.40816326530612246,69.9748260981169
0.4121648659463786,69.84229454795604
0.4161664665866347,70.25997539803568
0.42016806722689076,70.63976338432794
0.4241696678671469,71.47788462537619
0.428171268507403,70.71906770330061
0.43217286914765907,70.85747390450956
0.4361744697879152,70.78832784098942
0.4401760704281713,69.96294884614802
0.44417767106842737,71.00579212437114
0.4481792717086835,71.14580911734659
0.4521808723489396,72.44388974993045
0.4561824729891957,71.21259201313393
0.4601840736294518,71.55597847899453
0.4641856742697079,71.48420913613839
0.468187274909964,71.01351350705386
0.4721888755502201,72.26547812101207
0.4761904761904762,72.16617349277955
0.4801920768307323,72.28178867966975
0.4841936774709884,71.52756956820424
0.4881952781112445,72.7795752934503
0.49219687875150064,71.4730910955588
0.4961984793917567,72.56320670356716
0.5002000800320128,73.46068993465752
0.5042016806722689,71.96579975477033
0.508203281312525,72.27344607423349
0.5122048819527811,72.7018682655104
0.5162064825930373,72.49567241869084
0.5202080832332934,72.06736560897271
0.5242096838735495,72.97218470427335
0.5282112845138055,72.501875464126
0.5322128851540616,73.36486525084301
0.5362144857943177,72.76331564254684
0.5402160864345739,74.09287009562179
0.54421768707483,73.02106718994246
0.5482192877150861,73.3463692313232
0.5522208883553421,74.00877936304983
0.5562224889955982,73.08112337455586
0.5602240896358543,73.90473369434063
0.5642256902761105,74.53893611723969
0.5682272909163666,73.17589635815939
0.5722288915566227,74.16613976637164
0.5762304921968788,74.29786012682017
0.5802320928371348,74.65283649426347
0.584233693477391,73.73736587343264
0.5882352941176471,73.78943834094397
0.5922368947579032,74.80437150389983
0.5962384953981593,74.78553519375477
0.6002400960384154,74.85583888883131
0.6042416966786714,74.99727305401733
0.6082432973189276,74.57739936238582
0.6122448979591837,75.12680704375546
0.6162464985994398,75.25039001231191
0.6202480992396959,74.83975616661864
0.624249699879952,76.2228011622526
0.6282513005202081,75.61971574146844
0.6322529011604642,74.87993566284337
0.6362545018007203,75.8965545157241
0.6402561024409764,75.17352875983545
0.6442577030812325,76.1469047786128
0.6482593037214887,76.42505356158534
0.6522609043617448,75.52770773772
0.6562625050020008,76.51192933236618
0.6602641056422569,76.32872276529113
0.664265706282513,76.62535149696701
0.6682673069227691,77.2546045229933
0.6722689075630253,76.27529750704072
0.6762705082032814,76.11280335469971
0.6802721088435374,76.13648985279904
0.6842737094837935,76.26481273585502
0.6882753101240496,76.7255324361073
0.6922769107643058,77.02591871487444
0.6962785114045619,77.08484101105238
0.700280112044818,77.45113299086408
0.704281712685074,77.13498036272637
0.7082833133253301,77.94607622641608
0.7122849139655862,77.17770168868768
0.7162865146058424,78.76072617898858
0.7202881152460985,77.80397676007169
0.7242897158863546,77.15295522647057
0.7282913165266107,77.13636753071658
0.7322929171668667,78.00321804830345
0.7362945178071229,77.74030622481355
0.740296118447379,78.29898078788048
0.7442977190876351,78.26842885445933
0.7482993197278912,78.08511109729625
0.7523009203681473,77.78772964901106
0.7563025210084033,77.54318872667
0.7603041216486595,78.16672500480055
0.7643057222889156,78.90743576570814
0.7683073229291717,78.67542030998771
0.7723089235694278,78.0345237361178
0.7763105242096839,78.8328853313787
0.7803121248499401,79.02773679472377
0.7843137254901961,78.48181355533984
0.7883153261304522,79.08914936666966
0.7923169267707083,79.12981552510865
0.7963185274109644,78.61752962210804
0.8003201280512205,79.45609075106408
0.8043217286914767,79.6456497712163
0.8083233293317327,79.9947211473549
0.8123249299719888,80.06791159420368
0.8163265306122449,78.93986739617897
0.820328131252501,79.24735698737294
0.8243297318927572,80.06122992974326
0.8283313325330133,80.14792286926065
0.8323329331732694,80.23574559149341
0.8363345338135254,81.99165305388183
0.8403361344537815,80.43767127939977
0.8443377350940376,80.80682016533504
0.8483393357342938,80.80272160508933
0.8523409363745499,80.7379712360224
0.856342537014806,80.34106683683957
0.860344137655062,80.96448233361045
0.8643457382953181,80.28475125018248
0.8683473389355743,80.63879001334429
0.8723489395758304,80.6004217833566
0.8763505402160865,80.96981310576277
0.8803521408563426,82.17184549422714
0.8843537414965986,80.16639094405471
0.8883553421368547,81.52852757909437
0.8923569427771109,80.46427956626519
0.896358543417367,81.11977712246134
0.9003601440576231,81.98518890487567
0.9043617446978792,81.55768862736569
0.9083633453381353,81.07137516437638
0.9123649459783914,81.33715802289842
0.9163665466186475,82.11903393027825
0.9203681472589036,81.49833923862779
0.9243697478991597,82.05590113551395
0.9283713485394158,82.05446830251445
0.932372949179672,81.78975347512123
0.936374549819928,83.27125715426982
0.9403761504601841,82.5998357464538
0.9443777511004402,81.35375520422863
0.9483793517406963,82.54286252624063
0.9523809523809524,82.20190909016068
0.9563825530212086,83.04204350027426
0.9603841536614646,82.30244800578565
0.9643857543017207,82.72407820424505
0.9683873549419768,83.11653409925903
0.9723889555822329,83.37936755433154
0.976390556222489,82.4286461926709
0.9803921568627452,82.94370263840958
0.9843937575030013,82.95549336268432
0.9883953581432573,82.94816754726433
0.9923969587835134,84.23927829480476
0.9963985594237695,83.64061339048949
1.0004001600640255,82.88910375175655
1.0044017607042817,84.05975121521195
1.0084033613445378,84.74302365801184
1.012404961984794,84.27915379982076
1.01640656262505,83.08406157693113
1.0204081632653061,83.6823041832155
1.0244097639055623,84.63840021336706
1.0284113645458184,83.73148157543726
1.0324129651860745,84.38744543406294
1.0364145658263306,84.6329193936029
1.0404161664665867,83.86205050700357
1.0444177671068429,84.37551266449167
1.048419367747099,82.86424699183532
1.0524209683873549,84.05213737693431
1.056422569027611,84.51734237176636
1.0604241696678671,84.09887431919901
1.0644257703081232,85.61795473743476
1.0684273709483794,84.16550478504514
1.0724289715886355,84.7392223341936
1.0764305722288916,85.10312618734731
1.0804321728691477,85.83674558572787
1.0844337735094038,84.47637213410744
1.08843537414966,85.85392008597594
1.092436974789916,85.35532997900245
1.0964385754301722,84.93717410765969
1.1004401760704283,85.73653440982008
1.1044417767106842,85.68240552452689
1.1084433773509403,85.3599985175118
1.1124449779911965,85.77207706501133
1.1164465786314526,85.62142559038486
1.1204481792717087,85.94758424144382
1.1244497799119648,86.29847041464454
1.128451380552221,86.83682883848088
1.132452981192477,85.50116339541003
1.1364545818327332,87.26267342593144
1.1404561824729893,85.29603283100381
1.1444577831132454,86.27193809385514
1.1484593837535015,86.71757659478331
1.1524609843937577,86.63933423730384
1.1564625850340136,86.26274134037153
1.1604641856742697,86.54511478118087
1.1644657863145258,86.4775917796838
1.168467386954782,86.50415727017976
1.172468987595038,87.29821868726282
1.1764705882352942,87.12633348884481
1.1804721888755503,86.67560870197325
1.1844737895158064,87.54593036839144
1.1884753901560625,87.32367583129279
1.1924769907963186,87.65018101242342
1.1964785914365748,87.6321160320321
1.2004801920768309,86.97618307462837
1.2044817927170868,87.18379587609031
1.208483393357343,87.91056539915226
1.212484993997599,87.91496185233126
1.2164865946378551,87.67200950769853
1.2204881952781113,87.81363258396674
1.2244897959183674,88.46613447203367
1.2284913965586235,87.60367354848293
1.2324929971988796,88.24498878303247
1.2364945978391357,87.9421477915282
1.2404961984793919,88.00603026326402
1.244497799119648,88.73570830704287
1.248499399759904,88.670298889082
1.2525010004001602,88.73543773294843
1.2565026010404161,89.05233543629032
1.2605042016806722,88.48083154041522
1.2645058023209284,88.88185971410319
1.2685074029611845,88.45612303497533
1.2725090036014406,88.84353190542103
1.2765106042416967,88.68638820525838
1.2805122048819528,88.86978696298314
1.284513805522209,89.18851454459636
1.288515406162465,88.55129010471808
1.2925170068027212,90.07587542257401
1.2965186074429773,88.59577091834858
1.3005202080832334,88.56059917623358
1.3045218087234896,89.81547840642246
1.3085234093637454,89.7007989827345
1.3125250100040016,89.68538695608343
1.3165266106442577,89.75567352757666
1.3205282112845138,89.50336499452412
1.32452981192477,89.12866225603308
1.328531412565026,89.68280580591555
1.3325330132052822,89.37374935289036
1.3365346138455383,90.26712892772359
1.3405362144857944,89.77309096811537
1.3445378151260505,89.50073297993833
1.3485394157663066,89.81946147591833
1.3525410164065628,90.25310341975612
1.3565426170468189,89.83106876927226
1.3605442176870748,89.76792383904936
1.364545818327331,90.36678985396262
1.368547418967587,90.43315054871024
1.3725490196078431,90.12272507850273
1.3765506202480993,90.20601489025404
1.3805522208883554,90.62270394942273
1.3845538215286115,89.84758889666149
1.3885554221688676,89.93265800527259
1.3925570228091237,90.34173293589045
1.3965586234493799,90.65860254556655
1.400560224089636,90.98495649304915
1.404561824729892,91.63116251577574
1.408563425370148,91.38610061970924
1.4125650260104041,90.94089224445815
1.4165666266506602,91.07474800534958
1.4205682272909164,90.64618952461718
1.4245698279311725,91.2011988348361
1.4285714285714286,91.12892997926113
1.4325730292116847,91.49722477775074
1.4365746298519408,90.9846581318663
1.440576230492197,91.72015647950501
1.444577831132453,92.2888634170446
1.4485794317727092,91.52992535188355
1.4525810324129653,91.84677308939261
1.4565826330532214,92.05240097360719
1.4605842336934773,91.56793005017403
1.4645858343337335,91.9415970073909
1.4685874349739896,91.89665623356491
1.4725890356142457,91.99980575104453
1.4765906362545018,91.62486849720878
1.480592236894758,92.08383180054214
1.484593837535014,92.38057643963997
1.4885954381752702,92.91694655554812
1.4925970388155263,92.73060412133974
1.4965986394557824,93.38695001598347
1.5006002400960385,91.98587083155795
1.5046018407362947,92.86468612983124
1.5086034413765508,92.57897301264809
1.5126050420168067,93.64077430297523
1.5166066426570628,92.2000887782945
1.520608243297319,92.24253597354482
1.524609843937575,92.42065306697606
1.5286114445778312,91.71614717765324
1.5326130452180873,92.57275596908019
1.5366146458583434,92.5133980155235
1.5406162464985995,93.02528416976281
1.5446178471388556,93.1778798973739
1.5486194477791118,94.00179330499861
1.5526210484193679,93.59541676486128
1.556622649059624,92.88804060563575
1.5606242496998801,92.78336295698492
1.564625850340136,93.5343976545962
1.5686274509803921,92.68397880533446
1.5726290516206483,94.31527134374834
1.5766306522609044,94.04449743462182
1.5806322529011605,93.2752134739363
1.5846338535414166,92.70804612561894
1.5886354541816727,94.29614948537092
1.5926370548219289,93.61633075657512
1.596638655462185,94.34668334507548
1.600640256102441,92.98452265608343
1.6046418567426972,93.53579671577842
1.6086434573829533,93.89163992450021
1.6126450580232095,93.96582798610085
1.6166466586634654,93.77040999818252
1.6206482593037215,94.359757839217
1.6246498599439776,93.56719755754023
1.6286514605842337,94.0822773559867
1.6326530612244898,94.2658583360698
1.636654661864746,94.51495712414838
1.640656262505002,94.66535576936224
1.6446578631452582,93.79882101636524
1.6486594637855143,93.64546149149541
1.6526610644257704,95.10251596022243
1.6566626650660266,94.6807756620973
1.6606642657062827,94.19109830705862
1.6646658663465388,95.39142197407263
1.6686674669867947,94.7239688869087
1.6726690676270508,95.30584659983613
1.676670668267307,94.79980422464232
1.680672268907563,95.84604614548977
1.6846738695478192,95.74274971263708
1.6886754701880753,94.78978392246582
1.6926770708283314,95.44901746345695
1.6966786714685875,95.33466493048793
1.7006802721088436,95.74481637047208
1.7046818727490998,94.62634085897436
1.708683473389356,95.49990837302421
1.712685074029612,95.73395269246956
1.716686674669868,94.37300596157431
1.720688275310124,94.70815885278436
1.7246898759503801,94.32736127343664
1.7286914765906363,95.25923974885032
1.7326930772308924,95.79945635138397
1.7366946778711485,96.23838176512028
1.7406962785114046,95.57054430897304
1.7446978791516607,96.39387374269415
1.7486994797919169,94.93535937217085
1.752701080432173,94.81933780338662
1.756702681072429,95.68864859743339
1.7607042817126852,95.95362281024136
1.7647058823529413,95.79018428015546
1.7687074829931972,94.81752581805154
1.7727090836334534,95.85117542495054
1.7767106842737095,95.28776235261749
1.7807122849139656,96.31886783717097
1.7847138855542217,96.21113766904519
1.7887154861944778,95.60147788249847
1.792717086834734,95.85783551759336
1.79671868747499,95.62828511280196
1.8007202881152462,96.16944664687408
1.8047218887555023,96.72102283064429
1.8087234893957584,95.7930250055136
1.8127250900360146,96.58011825986705
1.8167266906762707,96.1049435146721
1.8207282913165266,96.01538331243697
1.8247298919567827,96.39982177234988
1.8287314925970388,95.97700257147049
1.832733093237295,96.25885515595505
1.836734693877551,95.97756597433808
1.8407362945178072,97.5994613770699
1.8447378951580633,96.67509299793383
1.8487394957983194,96.34772914548996
1.8527410964385755,96.84448054490359
1.8567426970788317,96.72099301502969
1.8607442977190878,96.70610619998011
1.864745898359344,97.16287556988729
1.8687474989996,97.27351430744095
1.872749099639856,96.66824487725502
1.876750700280112,96.68408785060502
1.8807523009203682,96.87273892005156
1.8847539015606243,95.89733801987882
1.8887555022008804,96.32850270025111
1.8927571028411365,97.80710055070682
1.8967587034813926,97.9834777784277
1.9007603041216488,97.07357148966123
1.9047619047619049,97.52322842729605
1.908763505402161,97.42720007491812
1.9127651060424171,98.84740483777271
1.9167667066826732,97.90390547914218
1.9207683073229291,97.3160767429969
1.9247699079631853,96.93794653212584
1.9287715086034414,96.64793827880008
1.9327731092436975,97.58810119211223
1.9367747098839536,97.14316496296269
1.9407763105242097,96.84494724733624
1.9447779111644659,97.26728401207512
1.948779511804722,97.08405517190943
1.952781112444978,98.50242086166216
1.9567827130852342,98.13345272883255
1.9607843137254903,97.72219105819279
1.9647859143657465,98.49945548699561
1.9687875150060026,97.83123490973269
1.9727891156462585,97.39473708422334
1.9767907162865146,98.61953053559301
1.9807923169267707,98.15977350794674
1.9847939175670268,97.40380587065927
1.988795518207283,97.85913034008114
1.992797118847539,97.54812135183937
1.9967987194877952,97.32592128060946
2.000800320128051,98.51156025712922
2.0048019207683074,99.03408961366212
2.0088035214085633,97.41076659397359
2.0128051220488197,98.4219631701993
2.0168067226890756,97.84534432942401
2.020808323329332,97.95704868456298
2.024809923969588,97.9341186878107
2.028811524609844,97.82778286182086
2.0328131252501,98.31325979435897
2.0368147258903564,97.90250260818013
2.0408163265306123,98.48194253435634
2.0448179271708686,98.35008910924394
2.0488195278111245,98.28398559033077
2.0528211284513804,97.97768646123764
2.0568227290916368,98.17084835710814
2.0608243297318927,98.86445224155455
2.064825930372149,98.76449453083187
2.068827531012405,98.05229415267819
2.0728291316526612,98.61753012461983
2.076830732292917,98.97010591981936
2.0808323329331735,97.78601412537323
2.0848339335734294,98.9184571252106
2.0888355342136857,98.3412811031781
2.0928371348539416,98.9834637979236
2.096838735494198,98.34186173202467
2.100840336134454,97.8461323122193
2.1048419367747098,97.95963924289362
2.108843537414966,98.82204492446738
2.112845138055222,98.95221042585601
2.1168467386954783,98.39429216694853
2.1208483393357342,99.18960244168294
2.1248499399759906,98.06315619143498
2.1288515406162465,98.88424046174966
2.132853141256503,98.33489038022583
2.1368547418967587,98.63735237962615
2.140856342537015,99.00959541240469
2.144857943177271,98.57806858409255
2.1488595438175273,98.83813008990423
2.152861144457783,99.55544012729406
2.156862745098039,98.78548677562246
2.1608643457382954,99.51317074435025
2.1648659463785513,98.55161609392744
2.1688675470188077,99.40226916448822
2.1728691476590636,99.87880152936364
2.17687074829932,97.94259757116302
2.180872348939576,98.80012712539416
2.184873949579832,99.50701795092174
2.188875550220088,99.13661840496646
2.1928771508603444,99.44312519750684
2.1968787515006003,98.97472265976367
2.2008803521408566,99.33892484748478
2.2048819527811125,99.23645762543427
2.2088835534213684,99.91660503409659
2.212885154061625,99.47809353937836
2.2168867547018807,99.53760480269327
2.220888355342137,99.18053646870386
2.224889955982393,99.16009433430777
2.2288915566226493,99.2047917513446
2.232893157262905,99.63522111112202
2.2368947579031615,99.24417768298136
2.2408963585434174,99.61598281866647
2.2448979591836737,100.52497173590072
2.2488995598239296,99.93876001192868
2.252901160464186,99.35586249435899
2.256902761104442,100.13490799924904
2.2609043617446978,99.34544020935259
2.264905962384954,98.54534247000085
2.26890756302521,99.07503831352608
2.2729091636654664,98.65811203675504
2.2769107643057223,99.43192748921997
2.2809123649459786,99.630819270881
2.2849139655862345,100.47350411550882
2.288915566226491,99.81217396592724
2.2929171668667467,99.55233419103745
2.296918767507003,100.08951069587117
2.300920368147259,98.581912892357
2.3049219687875153,99.81770957912934
2.308923569427771,100.09750568333989
2.312925170068027,98.98469970599626
2.3169267707082835,100.30753847379599
2.3209283713485394,99.91632708629825
2.3249299719887957,99.55060109083497
2.3289315726290516,100.08555081036057
2.332933173269308,100.91516973102024
2.336934773909564,99.88116838233658
2.34093637454982,99.92450596270525
2.344937975190076,99.58062403236109
2.3489395758303324,99.39503944516379
2.3529411764705883,100.2445349600735
2.356942777110844,99.41047877543505
2.3609443777511006,99.88320560040455
2.3649459783913565,99.61724365236138
2.368947579031613,100.10396022842873
2.3729491796718687,100.03944730078474
2.376950780312125,100.39928009413475
2.380952380952381,99.63314368781982
2.3849539815926373,99.76060402791065
2.388955582232893,99.41329704233083
2.3929571828731495,99.68741742608334
2.3969587835134054,100.10484716625278
2.4009603841536618,100.3010717574412
2.4049619847939177,99.46762294186199
2.4089635854341735,100.36938430554024
2.41296518607443,100.61802356598675
2.416966786714686,100.15229289330502
2.420968387354942,100.88909163314109
2.424969987995198,99.56866486018338
2.4289715886354544,99.33784525789756
2.4329731892757103,99.07517302270178
2.4369747899159666,100.7166632007161
2.4409763905562225,100.29967910521458
2.444977991196479,99.9483064835256
2.4489795918367347,100.11943296118743
2.452981192476991,99.41980121935212
2.456982793117247,101.20826607413207
2.460984393757503,100.05259224500132
2.4649859943977592,100.0450178329911
2.468987595038015,100.35528972651298
2.4729891956782715,100.23474419332028
2.4769907963185274,100.10776192490455
2.4809923969587837,99.60191018278994
2.4849939975990396,100.23395624087082
2.488995598239296,100.9400561095797
2.492997198879552,100.67232282551304
2.496998799519808,100.79652219530604
2.501000400160064,99.7443842597808
2.5050020008003204,99.50500003993682
2.5090036014405763,99.93646647934455
2.5130052020808322,100.02652702492287
2.5170068027210886,100.54481210184991
2.5210084033613445,99.15028295203902
2.525010004001601,100.7598365089475
2.5290116046418567,99.91435064947835
2.533013205282113,99.77795449136406
2.537014805922369,99.48313045668449
2.5410164065626253,99.15928913075122
2.545018007202881,100.39558480101111
2.5490196078431375,100.01768777212885
2.5530212084833934,99.33282487410668
2.5570228091236498,99.32678974970354
2.5610244097639057,99.80270789613905
2.5650260104041616,100.80112944034076
2.569027611044418,99.83258878095926
2.573029211684674,99.20632613282713
2.57703081232493,99.83028663225247
2.581032412965186,99.81180436645592
2.5850340136054424,98.59447828057584
2.5890356142456983,99.91027711634106
2.5930372148859546,99.81620776363563
2.5970388155262105,100.2737762582195
2.601040416166467,100.84389677623305
2.6050420168067228,100.47619454189409
2.609043617446979,99.77170866674764
2.613045218087235,99.34587877183185
2.617046818727491,101.17855811560061
2.6210484193677472,99.91397173826826
2.625050020008003,99.88355934152638
2.6290516206482595,99.85651224245242
2.6330532212885154,99.9593452236562
2.6370548219287717,99.77959871369436
2.6410564225690276,99.5561720656043
2.645058023209284,99.56054587629377
2.64905962384954,99.80831917522664
2.653061224489796,99.54345213240104
2.657062825130052,99.44895863872827
2.6610644257703084,99.8485620223215
2.6650660264105643,99.65757210791847
2.6690676270508202,100.5265195138434
2.6730692276910766,98.43824897966361
2.6770708283313325,100.29844680371896
2.681072428971589,100.36444416728732
2.6850740296118447,98.69316341888069
2.689075630252101,99.54672054582676
2.693077230892357,99.5202986359453
2.6970788315326133,98.98996694210003
2.701080432172869,99.29226723835087
2.7050820328131255,99.11308960359084
2.7090836334533814,100.53146392460725
2.7130852340936378,100.10986839092455
2.7170868347338937,100.26425663226114
2.7210884353741496,99.97551449181515
2.725090036014406,99.03610152107262
2.729091636654662,99.32406588111247
2.733093237294918,99.81646165352849
2.737094837935174,98.94590867021147
2.7410964385754304,99.89841992813828
2.7450980392156863,99.4064561841713
2.7490996398559426,99.32365677820951
2.7531012404961985,99.85074569166727
2.757102841136455,99.70134621562762
2.7611044417767108,99.28243075750098
2.765106042416967,100.02602855387198
2.769107643057223,98.88903243604635
2.773109243697479,99.72048309305204
2.7771108443377353,99.69176795815059
2.781112444977991,99.22289710829959
2.7851140456182475,99.52294090799663
2.7891156462585034,98.71627286022945
2.7931172468987597,99.78554970627134
2.7971188475390156,99.2125430890353
2.801120448179272,99.02484213714463
2.805122048819528,99.7916693988145
2.809123649459784,98.8957058478172
2.81312525010004,98.52411184272522
2.817126850740296,98.4302447160831
2.8211284513805523,99.49153322963693
2.8251300520208082,98.52803479464433
2.8291316526610646,100.02512017281663
2.8331332533013205,98.08598451257784
2.837134853941577,99.9541561904473
2.8411364545818327,99.19016831766118
2.845138055222089,99.0147875283077
2.849139655862345,98.76892209945929
2.8531412565026013,99.21894045467194
2.857142857142857,98.97829913606053
2.8611444577831135,99.52626499389612
2.8651460584233694,99.00897906092307
2.8691476590636253,99.00402106292533
2.8731492597038817,98.7238229289535
2.8771508603441376,98.85366913025085
2.881152460984394,99.01230993626932
2.88515406162465,97.97934631789764
2.889155662264906,98.13611376984923
2.893157262905162,99.15736915199768
2.8971588635454184,98.84645526022828
2.9011604641856743,98.64407127749526
2.9051620648259306,98.72007544282543
2.9091636654661865,98.8592001450412
2.913165266106443,98.38983571459927
2.917166866746699,98.24462506319793
2.9211684673869547,98.70551769731505
2.925170068027211,98.09198226306219
2.929171668667467,98.75862471712404
2.9331732693077233,97.67629249843762
2.937174869947979,99.01500452454154
2.9411764705882355,98.70932446811929
2.9451780712284914,98.57339640403364
2.9491796718687477,98.9088398024988
2.9531812725090036,99.22210144638396
2.95718287314926,98.8681764880928
2.961184473789516,97.41193906851468
2.9651860744297722,97.66373010746943
2.969187675070028,97.96200956913239
2.973189275710284,98.25812269467163
2.9771908763505404,98.47432322131618
2.9811924769907963,97.82279676296454
2.9851940776310526,98.24898561572566
2.9891956782713085,97.74760312681047
2.993197278911565,97.78898703813812
2.9971988795518207,97.36062591812025
3.001200480192077,97.5713097453012
3.005202080832333,97.32581353842268
3.0092036814725893,97.48220845635804
3.013205282112845,98.46521519070652
3.0172068827531016,97.43170422619833
3.0212084833933575,99.19036445213251
3.0252100840336134,98.08836269388824
3.0292116846738697,97.901412908924
3.0332132853141256,97.34686804728207
3.037214885954382,98.09301516232414
3.041216486594638,97.42161599949168
3.045218087234894,97.73677612596958
3.04921968787515,98.92191162267142
3.0532212885154064,97.55969958173264
3.0572228891556623,98.14798863178189
3.0612244897959187,97.18714866942747
3.0652260904361746,97.48639024522333
3.069227691076431,98.35419533222388
3.073229291716687,97.11998514672108
3.0772308923569427,98.30412997641575
3.081232492997199,97.71598227235575
3.085234093637455,97.04483733560946
3.0892356942777113,97.6060030515333
3.093237294917967,97.7395691340824
3.0972388955582235,97.52745411724001
3.1012404961984794,96.39445873492059
3.1052420968387358,96.77878943132015
3.1092436974789917,96.98115082670216
3.113245298119248,97.03001099278224
3.117246898759504,97.33964699478427
3.1212484993997602,97.08001060066913
3.125250100040016,96.28510323173232
3.129251700680272,97.10425604681913
3.1332533013205284,97.18059834766014
3.1372549019607843,97.11611594176367
3.1412565026010406,97.33729345951143
3.1452581032412965,97.17431393765084
3.149259703881553,96.94716029835996
3.1532613045218087,96.6424726876025
3.157262905162065,95.80682850033372
3.161264505802321,96.8116398940144
3.1652661064425773,96.65996509486945
3.1692677070828332,96.65097004355812
3.1732693077230896,95.83563487636584
3.1772709083633455,95.89207885929994
3.1812725090036014,96.91755120903821
3.1852741096438577,96.32933480913374
3.1892757102841136,96.64777055389867
3.19327731092437,96.27885769397774
3.197278911564626,96.23702562545124
3.201280512204882,96.64850952656305
3.205282112845138,95.87833661585643
3.2092837134853944,96.14118228522752
3.2132853141256503,95.81851900292578
3.2172869147659067,95.7887153925827
3.2212885154061626,95.80745668829492
3.225290116046419,96.02896154193576
3.229291716686675,95.63414519282269
3.2332933173269307,96.45679563594452
3.237294917967187,95.33678549547467
3.241296518607443,95.64559868524115
3.2452981192476993,95.47388841105028
3.249299719887955,96.37173667360351
3.2533013205282115,95.7007935569675
3.2573029211684674,96.07248181087353
3.2613045218087238,94.76759795271003
3.2653061224489797,95.59749738785465
3.269307723089236,95.8621575793848
3.273309323729492,95.41163020860213
3.2773109243697482,95.85615083581871
3.281312525010004,95.01746555709326
3.28531412565026,95.93325963464662
3.2893157262905164,96.33028840775366
3.2933173269307723,94.95145109792895
3.2973189275710286,94.86192805370825
3.3013205282112845,95.76295869792713
3.305322128851541,95.77741819193969
3.3093237294917968,94.67734658739707
3.313325330132053,94.67960680536342
3.317326930772309,94.69951096369834
3.3213285314125653,94.11866081974387
3.3253301320528212,94.28182297509434
3.3293317326930776,94.18912181839706
3.3333333333333335,94.25711736882548
3.3373349339735894,94.5732786706493
3.3413365346138457,94.65711477551405
3.3453381352541016,95.26442560245347
3.349339735894358,93.9389482557151
3.353341336534614,94.87901869131647
3.35734293717487,94.22837790600913
3.361344537815126,94.25893825485798
3.3653461384553824,94.56916090968915
3.3693477390956383,93.6182548073165
3.3733493397358947,94.31846927583042
3.3773509403761506,94.1579233525793
3.3813525410164065,94.26814031961334
3.385354141656663,94.11350137577205
3.3893557422969187,95.14335475208463
3.393357342937175,93.5434079168041
3.397358943577431,93.54313859446158
3.4013605442176873,93.44321224711095
3.405362144857943,93.42297600487909
3.4093637454981995,93.32774001251286
3.4133653461384554,94.18644815414044
3.417366946778712,94.24748597020309
3.4213685474189677,93.19694264798555
3.425370148059224,93.0110082951609
3.42937174869948,93.60755283346754
3.433373349339736,93.04018154324756
3.437374949979992,93.57699637210933
3.441376550620248,93.30601911173946
3.4453781512605044,92.39050277597414
3.4493797519007603,93.86573511553843
3.4533813525410166,93.93331983855315
3.4573829531812725,92.67217630743865
3.461384553821529,92.72770104606408
3.4653861544617848,93.00725757787171
3.469387755102041,92.97411857887175
3.473389355742297,93.07852022955458
3.4773909563825534,93.69650124430251
3.4813925570228093,92.54486958093361
3.485394157663065,92.1759324972383
3.4893957583033215,91.82695350370224
3.4933973589435774,92.09247453892694
3.4973989595838337,92.38249732754653
3.5014005602240896,93.23725618693287
3.505402160864346,92.02188360645407
3.509403761504602,92.33309116699242
3.513405362144858,92.15328998882504
3.517406962785114,92.69579900713424
3.5214085634253705,93.30496658341403
3.5254101640656264,91.7157614305431
3.5294117647058827,91.67596936995047
3.5334133653461386,92.38206101413002
3.5374149659863945,92.14001639874907
3.541416566626651,92.661313374147
3.5454181672669067,91.96861222660667
3.549419767907163,91.43549026412366
3.553421368547419,91.84875204219883
3.5574229691876753,92.04586526635813
3.561424569827931,91.83964433913543
3.5654261704681876,91.62073135245252
3.5694277711084434,91.8379244798396
3.5734293717487,91.82652983334357
3.5774309723889557,91.8700589380413
3.581432573029212,91.44023468969027
3.585434173669468,90.96902430697207
3.589435774309724,91.06244748957889
3.59343737494998,91.52865652822018
3.597438975590236,90.45305011006211
3.6014405762304924,90.98177540641754
3.6054421768707483,90.53649546316143
3.6094437775110046,90.68306911536895
3.6134453781512605,91.24326059455598
3.617446978791517,90.63472869015496
3.621448579431773,90.49734886664822
3.625450180072029,89.72896131324875
3.629451780712285,90.71658272509315
3.6334533813525414,90.60057277180715
3.6374549819927973,91.29364137771934
3.641456582633053,89.99211724515965
3.6454581832733095,90.18938330205111
3.6494597839135654,90.13811160314971
3.6534613845538217,90.73556829142414
3.6574629851940776,89.83242646365011
3.661464585834334,89.95262868115992
3.66546618647459,90.0499213949652
3.6694677871148462,89.77194488138066
3.673469387755102,89.38790307573736
3.6774709883953585,89.64045725302363
3.6814725890356144,90.01233374343846
3.6854741896758707,88.89417949831052
3.6894757903161266,89.40565536254944
3.6934773909563825,88.9206580249731
3.697478991596639,89.79960461610523
3.7014805922368947,88.37166611458096
3.705482192877151,88.78479273986049
3.709483793517407,89.18366996497308
3.7134853941576633,89.7084531108128
3.717486994797919,88.82326017777211
3.7214885954381756,88.50879734013701
3.7254901960784315,89.65705545729796
3.729491796718688,87.92236825739008
3.7334933973589437,87.47668942339011
3.7374949979992,88.72563617420995
3.741496598639456,88.1839581833131
3.745498199279712,87.853545478634
3.749499799919968,88.64733739568008
3.753501400560224,88.3438779557189
3.7575030012004804,87.86857830222105
3.7615046018407363,87.43892748007262
3.7655062024809927,88.44359290066349
3.7695078031212486,88.26057233127112
3.773509403761505,87.81381471929909
3.777511004401761,88.71447591683014
3.781512605042017,87.18369411868679
3.785514205682273,86.8833777726731
3.7895158063225294,87.22741541164628
3.7935174069627853,87.47763121905494
3.797519007603041,87.54897488586472
3.8015206082432975,87.23339468180025
3.8055222088835534,87.45657503739046
3.8095238095238098,86.58113979874155
3.8135254101640657,87.85498199338431
3.817527010804322,87.01804275806586
3.821528611444578,87.54361386205471
3.8255302120848342,87.08200563029379
3.82953181272509,87.06452645921216
3.8335334133653465,87.0463707348833
3.8375350140056024,86.91050944449745
3.8415366146458583,86.93301591179137
3.8455382152861146,87.20106193606375
3.8495398159263705,86.55940964194684
3.853541416566627,86.74014704519547
3.8575430172068828,86.26510662907464
3.861544617847139,86.95419607263173
3.865546218487395,85.81993846084909
3.8695478191276513,86.98243661404842
3.8735494197679072,85.9855543282327
3.8775510204081636,85.2137482612525
3.8815526210484195,85.91652661490492
3.885554221688676,85.43512374485415
3.8895558223289317,86.11898357088793
3.8935574229691876,85.29519957289014
3.897559023609444,85.32110764314045
3.9015606242497,84.52195531127711
3.905562224889956,85.16293784368048
3.909563825530212,84.09935616687417
3.9135654261704684,84.44138923744784
3.9175670268107243,85.53543328118478
3.9215686274509807,85.46985231508967
3.9255702280912366,85.21124877285321
3.929571828731493,84.43644164595466
3.933573429371749,84.81732623118518
3.937575030012005,84.76047579543821
3.941576630652261,84.1040333389099
3.945578231292517,85.35569741550214
3.9495798319327733,84.96330645438931
3.953581432573029,84.33461523180418
3.9575830332132855,84.37885771571248
3.9615846338535414,84.38976964928497
3.9655862344937978,83.18472073648947
3.9695878351340537,84.00185638679145
3.97358943577431,83.70415734999519
3.977591036414566,83.46389186117791
3.9815926370548222,83.74355261656015
3.985594237695078,84.70219593756744
3.9895958383353345,84.04287354064721
3.9935974389755904,83.35581208714585
3.9975990396158463,83.84649299326034
4.001600640256102,84.17853040325556
4.0056022408963585,83.8596721848898
4.009603841536615,83.34552527814847
4.013605442176871,82.91044906150331
4.017607042817127,83.50108958880371
4.021608643457383,83.2666347488105
4.025610244097639,83.43525695159217
4.029611844737896,83.22286920910992
4.033613445378151,83.34753783458586
4.0376150460184075,82.47247776343974
4.041616646658664,83.31598254054963
4.04561824729892,82.67313221830057
4.049619847939176,83.52886705459454
4.053621448579432,82.06340473096873
4.057623049219688,83.19260090892897
4.061624649859944,82.34005363910441
4.0656262505002,81.83172788627131
4.069627851140456,81.83169254130917
4.073629451780713,81.82952083380836
4.077631052420968,82.1176974806284
4.081632653061225,82.0828137924397
4.085634253701481,81.45018964131522
4.089635854341737,81.64036852915203
4.093637454981993,82.63905030785804
4.097639055622249,82.34691967314501
4.101640656262505,81.61640707461046
4.105642256902761,81.33220885939443
4.109643857543017,81.28804993064135
4.1136454581832735,81.44948620548307
4.11764705882353,80.54589023249503
4.121648659463785,80.84302442662162
4.125650260104042,80.05171426385965
4.129651860744298,80.99977943459386
4.133653461384554,81.0377959252992
4.13765506202481,80.38650385958597
4.141656662665066,81.32885920509496
4.1456582633053225,79.84262186720903
4.149659863945578,79.63682682235202
4.153661464585834,80.39462097072801
4.157663065226091,80.7191967945615
4.161664665866347,80.9507364019905
4.165666266506602,79.79232821822156
4.169667867146859,80.47398199014751
4.173669467787115,79.82813254363202
4.1776710684273715,79.67369286612703
4.181672669067627,80.11433130770345
4.185674269707883,79.91103323934979
4.18967587034814,78.70892237511312
4.193677470988396,80.14751202895104
4.197679071628651,80.0112882341861
4.201680672268908,78.9203397682196
4.205682272909164,79.34277986346127
4.2096838735494195,79.30352914139543
4.213685474189676,79.09836641502288
4.217687074829932,78.6042725307542
4.221688675470189,78.4548896511047
4.225690276110444,78.68908173968184
4.2296918767507,79.19926249924514
4.233693477390957,78.79561961805915
4.237695078031213,78.24931682569226
4.2416966786714685,78.73116126171831
4.245698279311725,76.83161253901862
4.249699879951981,78.7407232360683
4.253701480592237,77.20682519270885
4.257703081232493,77.80568903406291
4.261704681872749,77.33718827407517
4.265706282513006,77.15968306233394
4.269707883153261,78.29732520381246
4.2737094837935174,77.39283722017068
4.277711084433774,77.70960434352992
4.28171268507403,77.4224458372618
4.285714285714286,77.59386997831389
4.289715886354542,77.30309423465978
4.293717486994798,76.53241176104497
4.297719087635055,77.58115730030057
4.30172068827531,76.74515362439448
4.305722288915566,76.12264157521851
4.309723889555823,76.59566871170772
4.313725490196078,77.4687936907885
4.3177270908363345,77.05210648268813
4.321728691476591,76.36114625137608
4.325730292116847,76.26921564273164
4.329731892757103,76.19129519418964
4.333733493397359,77.29865156497439
4.337735094037615,76.35930736173864
4.341736694677872,76.29132031187537
4.345738295318127,76.4992994400218
4.3497398959583835,76.01130947179763
4.35374149659864,75.67005053632718
4.357743097238895,75.60895352308019
4.361744697879152,75.5787853621214
4.365746298519408,75.5033337086162
4.369747899159664,75.79302031020967
4.37374949979992,75.36234165555291
4.377751100440176,75.6097549751304
4.3817527010804325,75.11004650744705
4.385754301720689,75.09659647884281
4.389755902360944,73.96495744151164
4.393757503001201,75.32890592443779
4.397759103641457,74.9505766214648
4.401760704281713,75.18283431849412
4.405762304921969,73.1421056292244
4.409763905562225,75.54073249185316
4.413765506202481,74.33297050517054
4.417767106842737,74.86298585888444
4.421768707482993,73.6949801631168
4.42577030812325,74.42726889425691
4.429771908763506,73.500033708621
4.433773509403761,73.62062788689654
4.437775110044018,74.79521084544763
4.441776710684274,73.64844928987115
4.44577831132453,73.75801536583863
4.449779911964786,73.98975494818431
4.453781512605042,73.70789849289586
4.4577831132452985,73.44051837845446
4.461784713885554,73.45295631395526
4.46578631452581,74.37726660154401
4.469787915166067,73.05174911600146
4.473789515806323,73.08602505341361
4.4777911164465785,73.41563765461883
4.481792717086835,73.34782686226946
4.485794317727091,73.29325160247325
4.4897959183673475,72.92369383195941
4.493797519007603,71.93733885630996
4.497799119647859,73.22999059466791
4.501800720288116,71.74445717609503
4.505802320928372,72.37322478218489
4.509803921568627,71.74896903951206
4.513805522208884,71.99816104978677
4.51780712284914,72.09865863649604
4.5218087234893956,71.99892780360518
4.525810324129652,71.95310650086019
4.529811924769908,72.45282445698628
4.533813525410165,71.77648505077464
4.53781512605042,71.3313156472392
4.541816726690676,71.83904121012301
4.545818327330933,71.85526473714205
4.549819927971189,70.5501862672516
4.5538215286114445,71.36608031760787
4.557823129251701,71.32128679815266
4.561824729891957,70.72516946725435
4.565826330532213,71.46498667675992
4.569827931172469,70.60521939903451
4.573829531812725,70.64608182548515
4.577831132452982,70.3997371894598
4.581832733093237,70.39697583822337
4.5858343337334935,69.74389630753822
4.58983593437375,69.47479088412315
4.593837535014006,70.89478688391887
4.597839135654262,69.57670787246259
4.601840736294518,69.40708334901949
4.605842336934774,68.72861284266301
4.609843937575031,69.38829341610531
4.613845538215286,68.94863441506794
4.617847138855542,70.33353116195426
4.621848739495799,69.91971626230502
4.625850340136054,68.9729571641463
4.629851940776311,70.3454159599594
4.633853541416567,69.61218824125491
4.637855142056823,68.86093958523405
4.641856742697079,67.67564515674032
4.645858343337335,69.97275561518336
4.649859943977591,68.0343786076586
4.653861544617848,67.808290797428
4.657863145258103,69.04404615511199
4.6618647458983595,69.65435396977801
4.665866346538616,69.02827768397222
4.669867947178871,68.51970664510313
4.673869547819128,68.43668799049794
4.677871148459384,68.46752588017851
4.68187274909964,68.32173884597105
4.685874349739896,67.9842765054708
4.689875950380152,67.79713800325989
4.6938775510204085,67.61504858410514
4.697879151660665,67.17062221325888
4.70188075230092,67.30847861596135
4.705882352941177,66.50350230556512
4.709883953581433,67.20192899389725
4.713885554221688,66.65787550980653
4.717887154861945,66.50140344769858
4.721888755502201,67.04412763731226
4.7258903561424574,67.55112019879071
4.729891956782713,67.21517251718352
4.733893557422969,65.8716163621169
4.737895158063226,66.06286296334274
4.741896758703482,66.92883153831191
4.745898359343737,65.86793033252823
4.749899959983994,66.14754533912546
4.75390156062425,66.43553627612127
4.757903161264506,65.57694736738225
4.761904761904762,66.01437840011994
4.765906362545018,65.19521126439864
4.7699079631852745,65.462036496059
4.77390956382553,65.82307116167138
4.777911164465786,64.76710740404124
4.781912765106043,65.68423054511483
4.785914365746299,65.35452864082089
4.7899159663865545,65.54091297038433
4.793917567026811,65.27691223197567
4.797919167667067,65.74727990091854
4.8019207683073235,65.02804443801551
4.805922368947579,64.650920527414
4.809923969587835,64.82693240225474
4.813925570228092,64.937562890642
4.817927170868347,64.59044464063187
4.821928771508603,64.4863823158993
4.82593037214886,64.0151342584112
4.829931972789116,63.93469567462933
4.833933573429372,63.46483255972683
4.837935174069628,64.94088629280274
4.841936774709884,63.34410332485261
4.845938375350141,63.51949429330376
4.849939975990396,63.40663077010165
4.853941576630652,64.11316029594512
4.857943177270909,63.41806379983729
4.861944777911165,64.08922766692238
4.8659463785514205,63.02840740346816
4.869947979191677,63.404424608557974
4.873949579831933,62.7470081731071
4.877951180472189,64.13699043006353
4.881952781112445,62.370331451091346
4.885954381752701,63.01873707210119
4.889955982392958,63.080393109869014
4.893957583033213,62.8700647007736
4.8979591836734695,62.47016496978967
4.901960784313726,62.39752589549099
4.905962384953982,62.383953860940075
4.909963985594238,62.18814407180626
4.913965586234494,62.643167281473005
4.91796718687475,63.166058211909586
4.921968787515006,61.68160677911641
4.925970388155262,61.17499474977218
4.9299719887955185,61.715287025807875
4.933973589435775,62.94880340683253
4.93797519007603,61.15662165483245
4.941976790716287,62.27751769039761
4.945978391356543,62.196300826937005
4.949979991996799,60.98013885000973
4.953981592637055,61.440899115594156
4.957983193277311,61.87007318235773
4.961984793917567,60.76577162027331
4.965986394557824,60.75299989144087
4.969987995198079,60.463398791602046
4.9739895958383356,60.14630529231557
4.977991196478592,60.228485161888166
4.981992797118847,59.84059058117113
4.985994397759104,60.369036367905224
4.98999599839936,59.86643971230044
4.993997599039616,60.267749388362674
4.997999199679872,59.272337760349075
5.002000800320128,60.11515453265635
5.0060024009603845,60.26590804833713
5.010004001600641,58.751705850884484
5.014005602240896,59.83503365114818
5.018007202881153,60.16127378168441
5.022008803521409,58.8420555562332
5.0260104041616644,60.182602535756864
5.030012004801921,59.45527025610666
5.034013605442177,58.792704000628724
5.0380152060824335,59.01677997040409
5.042016806722689,59.22328858546741
5.046018407362945,58.88159511970469
5.050020008003202,59.01244502535946
5.054021608643458,58.182212783561525
5.058023209283713,58.62672112434247
5.06202480992397,57.7346838127302
5.066026410564226,58.28543823132027
5.070028011204482,57.788618129284075
5.074029611844738,57.772338789143404
5.078031212484994,58.65769391598491
5.082032813125251,58.48485834918322
5.086034413765506,58.143341337378054
5.090036014405762,57.192198545043205
5.094037615046019,57.47974765020205
5.098039215686275,58.14411260463187
5.1020408163265305,57.508049657591435
5.106042416966787,58.49649961794301
5.110044017607043,57.43315425029421
5.1140456182472995,57.23219784125733
5.118047218887555,56.881311107292674
5.122048819527811,57.0023545862143
5.126050420168068,56.759083382072745
5.130052020808323,57.08912681089825
5.1340536214485795,57.11319844280721
5.138055222088836,56.141648639160515
5.142056822729092,55.768844884237815
5.146058423369348,55.41619920597546
5.150060024009604,56.48816126057005
5.15406162464986,55.58236980471133
5.158063225290117,54.95751976097548
5.162064825930372,56.128191381056226
5.166066426570628,57.080364563089724
5.170068027210885,55.73081841082524
5.17406962785114,56.053115284911236
5.178071228491397,55.57482820897642
5.182072829131653,55.38454056793544
5.186074429771909,55.79362436537004
5.190076030412165,55.08907907716709
5.194077631052421,55.26807285905935
5.198079231692677,55.19541671640643
5.202080832332934,54.60074508724686
5.206082432973189,55.331066009824916
5.2100840336134455,54.64785212847655
5.214085634253702,54.25777987996934
5.218087234893958,54.804261745650564
5.222088835534214,53.98716173829741
5.22609043617447,54.35091038408444
5.230092036814726,54.23272018364328
5.234093637454982,54.68072377105806
5.238095238095238,54.275658469393
5.2420968387354945,53.92636692581336
5.246098439375751,54.24837292299115
5.250100040016006,54.43524186038469
5.254101640656263,53.919731123878556
5.258103241296519,53.546730365603864
5.262104841936775,52.786404852196995
5.266106442577031,52.810576504533856
5.270108043217287,53.0913734336403
5.274109643857543,52.84012484330194
5.278111244497799,52.95233378677176
5.282112845138055,52.97512685614208
5.286114445778312,53.112675313796395
5.290116046418568,52.713651803675816
5.294117647058823,52.893270109250295
5.29811924769908,52.58342105301036
5.302120848339336,51.46466220913085
5.306122448979592,51.88398715503573
5.310124049619848,52.18291877085526
5.314125650260104,51.551471835093345
5.3181272509003605,52.35768981392044
5.322128851540617,52.724557315383464
5.326130452180872,52.47007010618338
5.330132052821129,51.655526479457976
5.334133653461385,52.409221793707985
5.3381352541016405,51.63985596199271
5.342136854741897,51.298696075333815
5.346138455382153,51.062308497323066
5.3501400560224095,51.11960031571555
5.354141656662665,50.97862726184142
5.358143257302921,51.15986009701066
5.362144857943178,51.05693171353658
5.366146458583434,50.88021751231758
5.370148059223689,50.99927102758596
5.374149659863946,51.27829080065801
5.378151260504202,51.059969350086945
5.382152861144458,49.74502743388897
5.386154461784714,49.11286012077734
5.39015606242497,50.75938566566956
5.394157663065227,49.51125275132742
5.398159263705482,49.98483777530603
5.402160864345738,49.41475494034857
5.406162464985995,49.001475428903596
5.410164065626251,50.07591503868208
5.4141656662665065,50.0875437291655
5.418167266906763,49.32255848520401
5.422168867547019,48.218205752325794
5.4261704681872756,49.14358417712434
5.430172068827531,49.51565481015051
5.434173669467787,48.48341094550886
5.438175270108044,49.21772874095521
5.442176870748299,49.021644648416306
5.4461784713885555,49.22226546711761
5.450180072028812,48.895800009386946
5.454181672669068,48.25293603687948
5.458183273309324,49.241288124853405
5.46218487394958,48.46734124860201
5.466186474589836,48.436629830227375
5.470188075230093,47.887397198006454
5.474189675870348,48.03621275066172
5.4781912765106044,47.719349447106495
5.482192877150861,47.97924953869398
5.486194477791116,48.82562401698794
5.490196078431373,47.187942464012586
5.494197679071629,46.97131225149626
5.498199279711885,48.417955291142434
5.502200880352141,47.48206333290672
5.506202480992397,47.15662231799485
5.510204081632653,47.915623622753195
5.51420568227291,46.997455780438486
5.518207282913165,48.11794096098304
5.5222088835534215,47.448652479054616
5.526210484193678,46.770568765871026
5.530212084833934,47.998095592114495
5.53421368547419,46.52158372957346
5.538215286114446,47.10057187328254
5.542216886754702,46.78433736432054
5.546218487394958,47.190813095789835
5.550220088035214,47.226034515523516
5.5542216886754705,46.3667031452841
5.558223289315727,45.879500574574074
5.562224889955982,46.391790902955314
5.566226490596239,45.728629947879504
5.570228091236495,46.97995213355548
5.574229691876751,45.947385723815735
5.578231292517007,45.6024060976644
5.582232893157263,45.78344570241678
5.5862344937975195,44.923671535987026
5.590236094437775,45.017647841281885
5.594237695078031,46.00997363565096
5.598239295718288,44.987723596950005
5.602240896358544,44.699212125143205
5.606242496998799,45.397584289177104
5.610244097639056,45.62879429355381
5.614245698279312,45.30219777164773
5.618247298919568,45.34761904540155
5.622248899559824,44.378167519192694
5.62625050020008,43.9527259539798
5.630252100840337,45.32146128758655
5.634253701480592,44.316715253707805
5.638255302120848,44.25999749994407
5.642256902761105,44.95696862330186
5.646258503401361,44.47854339546277
5.6502601040416165,44.33602899375644
5.654261704681873,45.098343459444685
5.658263305322129,43.60194139653009
5.6622649059623855,44.29558042841776
5.666266506602641,43.768228989254574
5.670268107242897,43.78218341963331
5.674269707883154,44.32038971831542
5.67827130852341,43.71844555956476
5.6822729091636655,43.642152427893436
5.686274509803922,43.81783987318358
5.690276110444178,43.007797343037865
5.694277711084434,42.67946264178214
5.69827931172469,42.48556348701435
5.702280912364946,41.93379781473496
5.706282513005203,43.854195691830895
5.710284113645458,42.18371252800952
5.714285714285714,42.534023623504794
5.718287314925971,42.41568722335414
5.722288915566227,42.61735094623997
5.7262905162064826,42.781180785443055
5.730292116846739,42.71332493405665
5.734293717486995,41.901437480521125
5.738295318127251,42.01941592171856
5.742296918767507,42.15438047047969
5.746298519407763,41.79897235481033
5.75030012004802,42.63733240212773
5.754301720688275,41.98960362648547
5.7583033213285315,42.02212698663078
5.762304921968788,41.89681664259839
5.766306522609044,42.06291738798071
5.7703081232493,41.477612789736405
5.774309723889556,40.64972525084453
5.778311324529812,41.40914264080259
5.782312925170069,40.79489644542717
5.786314525810324,40.767662127014205
5.7903161264505805,41.236667961123516
5.794317727090837,41.474263438974226
5.798319327731092,40.777514669393675
5.802320928371349,40.8331739491871
5.806322529011605,41.441865618229514
5.810324129651861,40.623258136139036
5.814325730292117,41.7159697569471
5.818327330932373,40.610253483855665
5.822328931572629,39.35961210432465
5.826330532212886,40.52928403216988
5.830332132853141,40.25593761900954
5.834333733493398,40.62310602738536
5.838335334133654,40.22781811937341
5.842336934773909,39.73512436475271
5.846338535414166,39.10545582040729
5.850340136054422,39.526474108900075
5.854341736694678,39.11923507418515
5.858343337334934,39.16787245164771
5.86234493797519,39.66619211147465
5.8663465386154465,40.12075429672786
5.870348139255703,39.397167891620256
5.874349739895958,38.516052168184
5.878351340536215,39.25058863877679
5.882352941176471,39.541029228228595
5.886354541816727,38.55238132872245
5.890356142456983,38.70495714938132
5.894357743097239,38.69413697705429
5.8983593437374955,38.20930560368542
5.902360944377751,38.840992128827295
5.906362545018007,38.371610797144015
5.910364145658264,38.55722039667097
5.91436574629852,37.81921426781443
5.918367346938775,37.95987480141634
5.922368947579032,38.45557617148646
5.926370548219288,37.823888936048576
5.9303721488595444,38.78984646728038
5.9343737494998,37.64274501911418
5.938375350140056,37.87124411550287
5.942376950780313,38.141676408590186
5.946378551420568,36.882818493519984
5.950380152060824,36.62835897572769
5.954381752701081,36.66283942676059
5.958383353341337,37.974006543981126
5.9623849539815925,36.98397555783376
5.966386554621849,38.45633816590794
5.970388155262105,36.81259289240236
5.9743897559023615,37.10461531002019
5.978391356542617,37.70116292018433
5.982392957182873,37.85106851208264
5.98639455782313,37.79683433796208
5.990396158463386,37.28847302210817
5.9943977591036415,37.11467591947232
5.998399359743898,36.81741078963803
6.002400960384154,36.828978935501034
6.00640256102441,36.0830055597985
6.010404161664666,35.868448448275146
6.014405762304922,36.19496009715185
6.018407362945179,36.03080492573441
6.022408963585434,35.808684109211
6.02641056422569,36.30304424973427
6.030412164865947,36.35220752623353
6.034413765506203,35.83861527244429
6.038415366146459,36.453186795216446
6.042416966786715,35.06374064671803
6.046418567426971,35.458072951641135
6.050420168067227,35.11696353059713
6.054421768707483,34.4627334268449
6.058423369347739,35.27544397357247
6.062424969987996,35.17684918082485
6.066426570628251,35.91554296236492
6.0704281712685075,35.39547612475812
6.074429771908764,34.48938659587468
6.07843137254902,35.85009404740282
6.082432973189276,35.45529089465007
6.086434573829532,35.057708202543594
6.090436174469788,34.57546212038642
6.094437775110045,34.13118937833323
6.0984393757503,34.347170935214606
6.1024409763905565,35.00017495010426
6.106442577030813,35.32078159042597
6.110444177671068,35.07295996774254
6.114445778311325,33.97992571551528
6.118447378951581,33.587716875905954
6.122448979591837,34.14130731114406
6.126450580232093,33.11014701366371
6.130452180872349,34.07961745949936
6.1344537815126055,33.76806409497194
6.138455382152862,33.53284428415888
6.142456982793117,32.89267399014837
6.146458583433374,33.87115488688364
6.15046018407363,33.272500523072914
6.154461784713885,32.87855591114734
6.158463385354142,31.95221436150158
6.162464985994398,33.29958738298588
6.166466586634654,34.124638703567676
6.17046818727491,33.99447975763867
6.174469787915166,32.860808914601925
6.1784713885554225,32.71392802355848
6.182472989195679,33.175268780775355
6.186474589835934,32.367707589058185
6.190476190476191,32.94398643907295
6.194477791116447,33.10249280005903
6.1984793917567025,33.25945390121377
6.202480992396959,32.522617800556645
6.206482593037215,32.397738897678835
6.2104841936774715,31.98763926003484
6.214485794317727,31.940419464844616
6.218487394957983,32.16802405219938
6.22248899559824,32.39252533460176
6.226490596238496,32.59338966192783
6.230492196878751,31.66293878236806
6.234493797519008,32.73898004795634
6.238495398159264,31.78535852007065
6.2424969987995205,31.83869873523635
6.246498599439776,31.4044165615928
6.250500200080032,30.494720697833134
6.254501800720289,32.07786081098115
6.258503401360544,31.933436653056827
6.2625050020008,31.353707272257605
6.266506602641057,31.45740295691228
6.270508203281313,31.611594401253846
6.2745098039215685,30.502250148979044
6.278511404561825,30.949076557843238
6.282513005202081,31.540997031502314
6.286514605842338,30.44716419221975
6.290516206482593,31.151714938642503
6.294517807122849,30.257455434192014
6.298519407763106,31.099955424243905
6.302521008403361,30.78009795720846
6.3065226090436175,29.921715659604562
6.310524209683874,31.243199151752574
6.31452581032413,30.225267063584916
6.318527410964386,30.119355912984236
6.322529011604642,30.556872342041
6.326530612244898,30.963198791701746
6.330532212885155,29.8134487707083
6.33453381352541,30.28486678481708
6.3385354141656665,30.401290331890525
6.342537014805923,30.466478573787978
6.346538615446179,30.14137912609619
6.350540216086435,29.803066319164017
6.354541816726691,29.506396751456492
6.358543417366947,29.89706557888706
6.362545018007203,29.25191647794059
6.366546618647459,28.261494077016103
6.370548219287715,29.874823959999308
6.374549819927972,30.04307803680439
6.378551420568227,28.34440318965894
6.382553021208484,28.955955491500028
6.38655462184874,29.70554246725028
6.390556222488996,30.36005103095429
6.394557823129252,29.277231984512603
6.398559423769508,28.83855977740435
6.402561024409764,29.047033833891838
6.40656262505002,29.7620361646081
6.410564225690276,28.68792726407551
6.4145658263305325,28.547820649544352
6.418567426970789,28.642748493013528
6.422569027611044,28.34435625334811
6.426570628251301,28.819453119876666
6.430572228891557,29.50775209418976
6.434573829531813,28.794445299659138
6.438575430172069,28.44442000040011
6.442577030812325,28.362580889475527
6.4465786314525815,27.66497996879899
6.450580232092838,28.82641857905639
6.454581832733093,28.28443326754992
6.45858343337335,28.171800331925688
6.462585034013606,29.79748312998652
6.466586634653861,28.28939587858736
6.470588235294118,27.703415383742826
6.474589835934374,27.805625384893954
6.47859143657463,28.532722484121148
6.482593037214886,27.95503283485869
6.486594637855142,27.11935957397988
6.490596238495399,28.238417276114625
6.494597839135655,27.385238701258334
6.49859943977591,28.59667163293479
6.502601040416167,28.140963218873893
6.506602641056423,27.318399493272732
6.5106042416966785,28.123895063158045
6.514605842336935,27.458846635756178
6.518607442977191,27.793043642880477
6.5226090436174475,27.550967433727912
6.526610644257703,26.827573579286387
6.530612244897959,26.871334899963045
6.534613845538216,27.650655526281337
6.538615446178472,26.91106050791465
6.5426170468187275,26.81960511569817
6.546618647458984,26.48705770831996
6.55062024809924,27.119817017923346
6.5546218487394965,27.88288762614883
6.558623449379752,26.26167594155907
6.562625050020008,26.751579265104812
6.566626650660265,27.389817212319684
6.57062825130052,26.588334249102815
6.574629851940776,26.798999816411843
6.578631452581033,25.986487441066256
6.582633053221289,26.676919702395665
6.586634653861545,26.31448797891108
6.590636254501801,26.846431421673813
6.594637855142057,26.892978461323143
6.598639455782314,27.539999310685975
6.602641056422569,26.481179514644293
6.606642657062825,26.300620249361334
6.610644257703082,26.181487468659466
6.614645858343337,25.85449979977653
6.6186474589835935,26.147327234121583
6.62264905962385,25.777602046457712
6.626650660264106,25.956966085396402
6.630652260904362,26.47918294970632
6.634653861544618,25.26497755375433
6.638655462184874,26.286269170880335
6.642657062825131,26.32318520554804
6.646658663465386,25.55410824442628
6.6506602641056425,24.500947274411203
6.654661864745899,25.20691365040634
6.658663465386155,26.108489864034752
6.662665066026411,25.397944854507855
6.666666666666667,24.85933273247499
6.670668267306923,25.056420337612785
6.674669867947179,25.67916106491583
6.678671468587435,25.482480708839677
6.682673069227691,25.04013068228654
6.686674669867948,24.9268875801813
6.690676270508203,24.8653443245044
6.69467787114846,24.551162788676415
6.698679471788716,25.77142138536646
6.702681072428972,24.75416045098569
6.706682673069228,25.475708882263977
6.710684273709484,25.57981868001719
6.71468587434974,25.270569534520156
6.718687474989996,24.508080061497534
6.722689075630252,24.87845439688229
6.7266906762705085,24.617413982840134
6.730692276910765,24.13080688806185
6.73469387755102,24.6982073859408
6.738695478191277,23.900101965191578
6.742697078831533,25.03728015309158
6.746698679471789,24.165175182639093
6.750700280112045,24.452332096509785
6.754701880752301,24.447889995585715
6.7587034813925575,24.131513005826122
6.762705082032813,24.509257754153225
6.766706682673069,23.933630598530986
6.770708283313326,24.562129145074195
6.774709883953582,23.409115503757715
6.778711484593837,24.101147039743957
6.782713085234094,24.96350099323028
6.78671468587435,23.450177690418915
6.7907162865146065,23.568005617980543
6.794717887154862,24.120594944864347
6.798719487795118,23.91042326739475
6.802721088435375,23.9531674939334
6.806722689075631,23.979895059161326
6.810724289715886,24.010340529068532
6.814725890356143,24.20573753491603
6.818727490996399,23.8139345460925
6.8227290916366545,23.446764043186658
6.826730692276911,23.862277686325367
6.830732292917167,24.434760342487156
6.834733893557424,23.377561875520815
6.838735494197679,22.91590456321658
6.842737094837935,23.91623136755176
6.846738695478192,23.26225387469136
6.850740296118448,22.196094968247245
6.8547418967587035,23.666357978198818
6.85874349739896,22.93543281028892
6.862745098039216,23.118512641049772
6.866746698679472,23.290684690266293
6.870748299319728,23.18109271857339
6.874749899959984,23.401950497482154
6.878751500600241,22.791096714512573
6.882753101240496,23.22724195307911
6.8867547018807524,22.802998953875775
6.890756302521009,23.264495095965845
6.894757903161265,23.16532572277394
6.898759503801521,22.352709554111904
6.902761104441777,23.32644192195611
6.906762705082033,22.478726368173938
6.91076430572229,23.11422971713502
6.914765906362545,22.857572933144073
6.918767507002801,23.55698553376955
6.922769107643058,22.490361311396804
6.926770708283313,22.391872926325956
6.9307723089235695,22.521495182650014
6.934773909563826,22.34452561811105
6.938775510204082,22.8612340689806
6.942777110844338,21.618492727142677
6.946778711484594,21.865429258831846
6.95078031212485,21.824229185673378
6.954781912765107,22.799382577339895
6.958783513405362,23.1458717736804
6.9627851140456185,22.20491516811163
6.966786714685875,22.13954220103231
6.97078831532613,22.226031234480036
6.974789915966387,22.739235407856313
6.978791516606643,21.6621500131909
6.982793117246899,22.212780820753068
6.986794717887155,22.549204522488623
6.990796318527411,22.280402002123232
6.9947979191676675,22.093134967068522
6.998799519807924,22.467596677926903
7.002801120448179,20.584427386956026
7.006802721088436,22.244191720131365
7.010804321728692,21.54766756544915
7.014805922368948,20.92908131808465
7.018807523009204,22.06993263022121
7.02280912364946,22.471335561499846
7.026810724289716,21.68619857311994
7.030812324929972,22.202018415621232
7.034813925570228,22.50262053815704
7.038815526210485,22.32508104261152
7.042817126850741,22.458990809101966
7.046818727490996,21.981699521383273
7.050820328131253,21.62022250892475
7.054821928771509,20.753635557174714
7.058823529411765,21.403943029022265
7.062825130052021,21.077949996463193
7.066826730692277,22.557887058192374
7.0708283313325335,21.357558754517047
7.074829931972789,21.480433751522554
7.078831532613045,21.668147618254036
7.082833133253302,21.388023797287143
7.086834733893558,22.18780996546142
7.0908363345338135,21.003266026772426
7.09483793517407,21.38644525132587
7.098839535814326,20.892701761479383
7.1028411364545825,20.578966203225338
7.106842737094838,20.908378349561033
7.110844337735094,21.171275120573725
7.114845938375351,20.950918373515428
7.118847539015607,20.79538045823979
7.122849139655862,20.414699326052695
7.126850740296119,21.05281817862523
7.130852340936375,20.31876963079011
7.1348539415766306,21.42816274525276
7.138855542216887,21.066605823579387
7.142857142857143,20.274107762994586
7.1468587434974,20.826023063979168
7.150860344137655,20.582540154340954
7.154861944777911,21.096443170966683
7.158863545418168,21.585565638951696
7.162865146058424,19.956485758874834
7.1668667466986795,20.93056382305399
7.170868347338936,20.77221052039222
7.174869947979192,21.167420567332776
7.178871548619448,20.918070060154736
7.182873149259704,20.415456031285544
7.18687474989996,20.61213054125968
7.190876350540217,20.354109378509666
7.194877951180472,21.270838783403242
7.1988795518207285,20.72445217693182
7.202881152460985,21.645601185619718
7.206882753101241,20.6461333964248
7.210884353741497,20.303966968122662
7.214885954381753,19.88326840681802
7.218887555022009,19.720759833915448
7.222889155662265,19.81271469933086
7.226890756302521,20.72104803592584
7.230892356942777,20.824798411768665
7.234893957583034,19.763040996794075
7.238895558223289,20.984605316627544
7.242897158863546,20.279254914273668
7.246898759503802,20.57813079842726
7.250900360144058,21.2950431321434
7.254901960784314,20.921800774682396
7.25890356142457,20.32381396299499
7.262905162064826,19.99743131263492
7.266906762705083,19.352317926420817
7.270908363345338,20.05409732612643
7.2749099639855945,20.293807473904913
7.278911564625851,19.891731776630884
7.282913165266106,20.305892431689788
7.286914765906363,20.396396747128566
7.290916366546619,20.232243306200523
7.294917967186875,20.006621183264517
7.298919567827131,20.40315175383706
7.302921168467387,20.527247535325774
7.3069227691076435,19.748781392335385
7.3109243697479,20.987401847006197
7.314925970388155,20.220847398773103
7.318927571028412,20.268023240433916
7.322929171668668,20.601413833870556
7.326930772308923,20.352874181771632
7.33093237294918,20.70204529740458
7.334933973589436,20.35850136597202
7.3389355742296924,19.89843440420423
7.342937174869948,20.3753702325362
7.346938775510204,19.61297237837174
7.350940376150461,20.229584042553622
7.354941976790717,20.14940965776379
7.358943577430972,20.052938502319307
7.362945178071229,20.08395232462421
7.366946778711485,19.19877263397891
7.370948379351741,19.857062760122076
7.374949979991997,20.16982775500065
7.378951580632253,20.19556567473769
7.3829531812725095,19.59428421556135
7.386954781912765,20.733712194229657
7.390956382553021,19.660759563867693
7.394957983193278,20.571816573143153
7.398959583833534,20.29417845217546
7.4029611844737895,19.751213269265303
7.406962785114046,20.95598041756478
7.410964385754302,19.465757034521793
7.4149659863945585,20.516655484758378
7.418967587034814,20.552125007691725
7.42296918767507,19.711531731166225
7.426970788315327,20.738335040645993
7.430972388955582,19.912592286059464
7.434973989595838,20.177728136943873
7.438975590236095,20.159560673601497
7.442977190876351,19.95851649352938
7.446978791516607,20.42759881260268
7.450980392156863,20.41571557174147
7.454981992797119,19.141734504350747
7.458983593437376,20.66545265475498
7.462985194077631,19.179571361667573
7.466986794717887,20.52487807583306
7.470988395358144,20.56999796964594
7.4749899959984,19.4594554356752
7.4789915966386555,19.798077589126283
7.482993197278912,19.449431323142594
7.486994797919168,19.89387491607711
7.490996398559424,19.84662291851276
7.49499799919968,20.39002781606855
7.498999599839936,20.6551622750634
7.503001200480193,20.697913023408642
7.507002801120448,19.719303184275297
7.5110044017607045,19.896345201785557
7.515006002400961,19.160058841586697
7.519007603041217,19.59991755623931
7.523009203681473,20.486605903783744
7.527010804321729,20.813551834322194
7.531012404961985,19.390419149496406
7.535014005602241,19.713447434734896
7.539015606242497,19.99881546750682
7.5430172068827535,20.154690495086157
7.54701880752301,19.61265249703786
7.551020408163265,20.23258187420453
7.555022008803522,19.786981507483713
7.559023609443778,20.02027758752331
7.563025210084034,20.304501079030345
7.56702681072429,20.038677987751555
7.571028411364546,19.82163444518344
7.575030012004802,19.98963563830193
7.579031612645059,20.005124793535284
7.583033213285314,19.869419043365763
7.5870348139255706,19.930397332082187
7.591036414565827,20.86474223976495
7.595038015206082,20.351754120019816
7.599039615846339,19.929682391866876
7.603041216486595,20.432280282525006
7.607042817126851,19.923526199000598
7.611044417767107,20.683883418571327
7.615046018407363,20.28927960054172
7.6190476190476195,20.05819704075068
7.623049219687876,20.343348340899343
7.627050820328131,19.34194567582448
7.631052420968388,19.57214594998956
7.635054021608644,19.546965121056544
7.6390556222488994,20.224049065587003
7.643057222889156,21.027736811353066
7.647058823529412,21.28628302129493
7.6510604241696685,20.499063920824195
7.655062024809924,20.440117755341014
7.65906362545018,19.29907546336855
7.663065226090437,19.938427845325656
7.667066826730693,19.826284821927835
7.671068427370948,19.92041632356701
7.675070028011205,20.157683042922233
7.679071628651461,20.016875828600377
7.6830732292917165,19.274688642619584
7.687074829931973,20.649962299172586
7.691076430572229,19.75155540073369
7.695078031212486,20.41972113198053
7.699079631852741,21.349560788014045
7.703081232492997,19.865499798927367
7.707082833133254,19.072971783184965
7.71108443377351,20.208287610014775
7.7150860344137655,20.915194358128105
7.719087635054022,21.357563645824055
7.723089235694278,19.777540971533167
7.7270908363345345,20.654841614350282
7.73109243697479,20.1882633026252
7.735094037615046,20.382621085258172
7.739095638255303,21.77269377764517
7.743097238895558,19.71421379763536
7.7470988395358145,20.607995570304364
7.751100440176071,20.730648925669882
7.755102040816327,21.05562182589167
7.759103641456583,20.57789618651718
7.763105242096839,20.699355346360566
7.767106842737095,20.36618067635622
7.771108443377352,20.713492625368154
7.775110044017607,20.424506415907278
7.779111644657863,20.924310993162923
7.78311324529812,20.446391360322508
7.787114845938375,20.83766707922332
7.791116446578632,20.652654589890815
7.795118047218888,21.248728882255776
7.799119647859144,20.678673184457423
7.8031212484994,19.836768512774988
7.807122849139656,21.37340848953581
7.811124449779912,20.308992751580742
7.815126050420169,20.454634943344125
7.819127651060424,20.50359459984886
7.8231292517006805,21.508799225358732
7.827130852340937,19.774145673975955
7.831132452981193,22.43150719129942
7.835134053621449,21.411558883276776
7.839135654261705,21.016294768746906
7.843137254901961,20.89862028930783
7.847138855542217,21.090483314741988
7.851140456182473,21.230153352170543
7.8551420568227295,21.31433252624049
7.859143657462986,21.291906156255255
7.863145258103241,21.08151990710039
7.867146858743498,20.960932309739267
7.871148459383754,21.007082997099936
7.87515006002401,21.008629637254202
7.879151660664266,21.696578836139274
7.883153261304522,21.450327881639705
7.887154861944778,19.707456507672592
7.891156462585034,21.529947937128213
7.89515806322529,21.323957635524188
7.899159663865547,21.242072259225505
7.903161264505803,21.082249463159645
7.907162865146058,21.863891896365985
7.911164465786315,21.801170248410404
7.915166066426571,20.966784137067577
7.919167667066827,21.582809377628347
7.923169267707083,20.919759274595883
7.927170868347339,20.74232694570031
7.9311724689875955,21.14556961262757
7.935174069627852,21.917160799171693
7.939175670268107,21.989805894046363
7.943177270908364,21.797308687656344
7.94717887154862,21.93107960116554
7.9511804721888755,21.854629529793502
7.955182072829132,21.30405103842001
7.959183673469388,21.869247150870535
7.9631852741096445,22.0822270962282
7.9671868747499,22.08814668452023
7.971188475390156,22.334678439076534
7.975190076030413,22.123836273670413
7.979191676670669,21.97511272732546
7.983193277310924,22.364409505173292
7.987194877951181,21.846260818521447
7.991196478591437,21.449012293502975
7.995198079231693,21.839085224601057
7.999199679871949,21.579077194233374
8.003201280512204,21.645089716421165
8.00720288115246,21.94181018611049
8.011204481792717,21.649490360377065
8.015206082432973,21.923590287357985
8.01920768307323,21.162874180418694
8.023209283713486,22.24867835672829
8.027210884353742,22.175223552793653
8.031212484993999,21.798904928557036
8.035214085634253,22.570139416665604
8.03921568627451,22.742607689962174
8.043217286914766,21.50358721745768
8.047218887555022,21.95978756659102
8.051220488195279,21.990599651389736
8.055222088835535,21.93947799524919
8.059223689475791,22.858663318830818
8.063225290116046,22.381746595008757
8.067226890756302,22.38137320516607
8.071228491396559,21.546907378867758
8.075230092036815,22.90199226267857
8.079231692677071,22.00033526383601
8.083233293317328,22.685848291708275
8.087234893957584,22.830724035434017
8.09123649459784,23.40875430027297
8.095238095238095,22.110639854672264
8.099239695878351,21.29215441265016
8.103241296518608,22.930930850699777
8.107242897158864,23.776592173770887
8.11124449779912,23.533374945119355
8.115246098439377,23.05653110539071
8.119247699079633,22.743917138556597
8.123249299719888,23.431564327391285
8.127250900360144,22.579731449087486
8.1312525010004,23.34341843226081
8.135254101640657,23.396942859717722
8.139255702280913,23.713513954002718
8.14325730292117,24.602672979580433
8.147258903561426,23.458717394052904
8.15126050420168,23.047926287659987
8.155262104841936,23.32975162195602
8.159263705482193,22.49836323694371
8.16326530612245,23.07613851382297
8.167266906762706,23.2596789723148
8.171268507402962,23.243332068352522
8.175270108043218,23.622840483689696
8.179271708683475,23.17697030524078
8.183273309323729,24.19044300980391
8.187274909963985,23.672008530350972
8.191276510604242,23.709461810749307
8.195278111244498,23.59260097134988
8.199279711884754,23.87680914641882
8.20328131252501,24.25465725858739
8.207282913165267,23.45166591588287
8.211284513805522,23.599523979800196
8.215286114445778,23.82029843961491
8.219287715086034,23.343032975507448
8.22328931572629,23.65037396726932
8.227290916366547,23.86615411852074
8.231292517006803,24.5859477222849
8.23529411764706,24.324749010298476
8.239295718287316,24.3352048699121
8.24329731892757,24.709026534202284
8.247298919567827,24.260285082736107
8.251300520208083,24.569822323686154
8.25530212084834,24.36882315362523
8.259303721488596,24.599184255936688
8.263305322128852,24.221417432121957
8.267306922769109,23.3399061973758
8.271308523409363,24.53891725283423
8.27531012404962,25.364396705733284
8.279311724689876,25.163319592003553
8.283313325330132,25.230323037509724
8.287314925970389,25.413324911858346
8.291316526610645,24.887446152455734
8.295318127250901,24.989855264438383
8.299319727891156,24.630673460576915
8.303321328531412,24.82998661629111
8.307322929171669,25.344653586905775
8.311324529811925,25.68767622187904
8.315326130452181,25.065197570744022
8.319327731092438,24.95923318452552
8.323329331732694,25.234218995491034
8.32733093237295,25.58440536666034
8.331332533013205,24.611941022170956
8.335334133653461,24.23606353711999
8.339335734293718,25.159389999917305
8.343337334933974,24.875025130935413
8.34733893557423,25.28225235190316
8.351340536214487,25.513591263728056
8.355342136854743,25.412233733204335
8.359343737494997,26.416685436917568
8.363345338135254,25.90563467518214
8.36734693877551,25.94452665959156
8.371348539415767,26.15763647352435
8.375350140056023,25.32957566887809
8.37935174069628,26.471223020666883
8.383353341336536,25.96667512281016
8.387354941976792,26.39290261940215
8.391356542617046,25.575053308838807
8.395358143257303,25.38763638973666
8.39935974389756,26.627208343531894
8.403361344537815,26.460429573960027
8.407362945178072,25.87537354361983
8.411364545818328,25.94595516107445
8.415366146458584,26.99810400204304
8.419367747098839,25.895492753577663
8.423369347739095,27.36655910236681
8.427370948379352,26.150147671854914
8.431372549019608,26.97510055395941
8.435374149659864,26.547252693282573
8.43937575030012,27.06902342288208
8.443377350940377,26.55145056547597
8.447378951580633,26.798398701195595
8.451380552220888,26.956751702307177
8.455382152861144,26.491904362623945
8.4593837535014,27.42032489618535
8.463385354141657,26.850428870463848
8.467386954781913,27.050066562409416
8.47138855542217,26.724730272887594
8.475390156062426,25.998483780904273
8.47939175670268,27.242089224064692
8.483393357342937,28.602069789834374
8.487394957983193,27.8464293075826
8.49139655862345,27.503067800353886
8.495398159263706,27.440028773924954
8.499399759903962,27.641688333404044
8.503401360544219,27.96320077035992
8.507402961184473,27.158624884048425
8.51140456182473,28.365786095683816
8.515406162464986,28.22611336370335
8.519407763105242,28.2875161494413
8.523409363745499,28.20786448026835
8.527410964385755,28.058840627076883
8.531412565026011,28.4460705848094
8.535414165666268,28.466356300385016
8.539415766306522,28.054439358412537
8.543417366946779,28.005870135799906
8.547418967587035,28.405010919287832
8.551420568227291,29.190204649635618
8.555422168867548,27.857952501629757
8.559423769507804,27.80575414473935
8.56342537014806,28.684106816975817
8.567426970788315,28.689578353346295
8.571428571428571,28.813411533464006
8.575430172068828,28.91152119612195
8.579431772709084,28.7409446657465
8.58343337334934,29.660675610000126
8.587434973989597,28.178686501321874
8.591436574629853,28.62848067950165
8.59543817527011,29.054888212624544
8.599439775910364,28.34890288417275
8.60344137655062,29.146746676361488
8.607442977190876,30.12978003634735
8.611444577831133,29.374053351687113
8.61544617847139,29.543719385449204
8.619447779111646,28.86323863666982
8.623449379751902,29.250285252917067
8.627450980392156,29.436205143649733
8.631452581032413,29.530475188465985
8.635454181672669,30.395875649285227
8.639455782312925,30.099811493529995
8.643457382953182,29.331339975857247
8.647458983593438,30.076614696597698
8.651460584233694,30.268956477503565
8.65546218487395,30.65659294092605
8.659463785514205,30.943650684417744
8.663465386154462,29.712883843071353
8.667466986794718,29.88224103574841
8.671468587434974,29.726307543724
8.67547018807523,30.305700628670493
8.679471788715487,30.72369080627561
8.683473389355743,31.052166485350025
8.687474989995998,30.588697440621363
8.691476590636254,30.535108602619523
8.69547819127651,30.839456026451955
8.699479791916767,30.414735066557547
8.703481392557023,31.94598975174896
8.70748299319728,30.166487701709706
8.711484593837536,31.131969843113065
8.71548619447779,32.120867077736904
8.719487795118047,31.18211094179321
8.723489395758303,31.153520750057005
8.72749099639856,31.139828559417985
8.731492597038816,31.29854774584675
8.735494197679072,32.14554100888257
8.739495798319329,30.423739424736432
8.743497398959585,32.36712081793502
8.74749899959984,30.959338508826818
8.751500600240096,31.609083120794793
8.755502200880352,31.599057908801385
8.759503801520609,32.17940577000774
8.763505402160865,31.157693706312994
8.767507002801121,32.25964624059353
8.771508603441378,33.112695568742616
8.775510204081632,31.49111097356412
8.779511804721889,32.33988419149286
8.783513405362145,31.986548606421092
8.787515006002401,32.60316688348199
8.791516606642658,32.47265529211727
8.795518207282914,32.215370149289065
8.79951980792317,32.85325556234615
8.803521408563427,33.584872443823095
8.807523009203681,32.660798151132404
8.811524609843937,33.18985290021961
8.815526210484194,32.25723309038961
8.81952781112445,32.49971831198742
8.823529411764707,33.28837739307791
8.827531012404963,33.86864037551569
8.83153261304522,33.37896702574096
8.835534213685474,33.1193787377252
8.83953581432573,33.35046979635216
8.843537414965986,32.80070503273329
8.847539015606243,33.803419359741355
8.8515406162465,34.017748539620676
8.855542216886755,33.42612419221054
8.859543817527012,33.4929021953552
8.863545418167266,33.9367823762227
8.867547018807523,33.661568987156215
8.871548619447779,33.92311326227887
8.875550220088035,35.08245581719923
8.879551820728292,33.9856615808088
8.883553421368548,34.00674753517364
8.887555022008804,33.93905307466612
8.89155662264906,34.71198902965879
8.895558223289315,34.32651223665078
8.899559823929572,34.16983080815083
8.903561424569828,35.23272358295283
8.907563025210084,35.35958805376418
8.91156462585034,34.427450007232196
8.915566226490597,33.87242681462253
8.919567827130853,35.38764790372368
8.923569427771108,34.61992918841571
8.927571028411364,35.43606822203928
8.93157262905162,34.13437261711861
8.935574229691877,35.64454958368069
8.939575830332133,34.67164812517819
8.94357743097239,35.72175561207034
8.947579031612646,35.442805336316766
8.951580632252902,35.03814962843187
8.955582232893157,35.39120650101402
8.959583833533413,36.01764348568574
8.96358543417367,35.807344859669385
8.967587034813926,36.12667077024642
8.971588635454182,36.902903984011125
8.975590236094439,35.21293455537075
8.979591836734695,36.88418506783569
8.98359343737495,36.208431408853436
8.987595038015206,35.78768680629323
8.991596638655462,35.65289762762498
8.995598239295719,36.30461956292692
8.999599839935975,36.94127932703816
9.003601440576231,36.49810290480222
9.007603041216488,37.39902629045944
9.011604641856744,35.999579991423026
9.015606242496998,36.800989507812176
9.019607843137255,36.26285002146339
9.023609443777511,37.15302154511368
9.027611044417768,37.496953737802166
9.031612645058024,36.92557864339066
9.03561424569828,35.91644664670794
9.039615846338537,37.40076569839625
9.043617446978791,37.602542442990575
9.047619047619047,37.66934505493594
9.051620648259304,38.16825572705517
9.05562224889956,37.098146662618035
9.059623849539816,38.05723181743042
9.063625450180073,38.39696864663183
9.06762705082033,36.99515255907262
9.071628651460584,38.128143530396926
9.07563025210084,37.80023824377319
9.079631852741096,38.09571610896278
9.083633453381353,38.39460318595827
9.087635054021609,38.06157584041483
9.091636654661865,38.05189840707817
9.095638255302122,38.491527590926054
9.099639855942378,38.015663424176644
9.103641456582633,38.10134438020135
9.107643057222889,39.06904913961823
9.111644657863145,38.24020549851356
9.115646258503402,39.23313271010403
9.119647859143658,39.2167794355366
9.123649459783914,38.20822059953511
9.12765106042417,38.81811411656107
9.131652661064425,39.83985538480938
9.135654261704682,38.8382533769789
9.139655862344938,39.182800145481494
9.143657462985194,39.732328987466204
9.14765906362545,39.97941964427182
9.151660664265707,39.54850983363505
9.155662264905963,39.462207557409464
9.15966386554622,40.55895890679609
9.163665466186474,40.804162523344296
9.16766706682673,40.511207277050524
9.171668667466987,40.15162917747798
9.175670268107243,39.7921548430406
9.1796718687475,39.86850828939122
9.183673469387756,40.63255497247537
9.187675070028012,40.66818854225812
9.191676670668267,41.24760377070595
9.195678271308523,40.95996753823588
9.19967987194878,39.97126277823015
9.203681472589036,41.33695903783809
9.207683073229292,40.400258520457115
9.211684673869549,40.79572755032695
9.215686274509805,41.20135782968545
9.219687875150061,42.162755640032636
9.223689475790316,42.80866440954953
9.227691076430572,41.64596840409426
9.231692677070829,41.34002825271719
9.235694277711085,41.78801645569385
9.239695878351341,42.053845232102844
9.243697478991598,41.5390538482085
9.247699079631854,42.686479169910925
9.251700680272108,41.99350982597101
9.255702280912365,42.217061502373134
9.259703881552621,42.390981585192776
9.263705482192877,42.35875568783075
9.267707082833134,42.657488409552954
9.27170868347339,42.01955962697941
9.275710284113647,42.139315118348314
9.279711884753901,41.958779797324944
9.283713485394157,42.81910901961634
9.287715086034414,43.07943814644939
9.29171668667467,43.0095772452385
9.295718287314926,43.70876679988637
9.299719887955183,42.95966062423941
9.30372148859544,43.38787521640891
9.307723089235695,42.59880683446428
9.31172468987595,43.042366857948416
9.315726290516206,43.67505100044515
9.319727891156463,43.84330398775976
9.323729491796719,43.363345089289446
9.327731092436975,43.56620880902885
9.331732693077232,42.934855094993296
9.335734293717488,43.60716398262694
9.339735894357743,44.322859279937
9.343737494997999,44.257361240309244
9.347739095638255,44.31228396379477
9.351740696278512,44.17913107150885
9.355742296918768,44.250169102572514
9.359743897559024,44.00896983531417
9.36374549819928,44.78113649869407
9.367747098839537,44.73489906075
9.371748699479792,44.863210142983846
9.375750300120048,44.44706867198599
9.379751900760304,43.72639666443254
9.38375350140056,45.444722580214254
9.387755102040817,44.74990107682081
9.391756702681073,44.651200394803375
9.39575830332133,45.52269050668816
9.399759903961584,45.073401216382024
9.40376150460184,45.89292533488511
9.407763105242097,45.76510225369694
9.411764705882353,45.89211801411411
9.41576630652261,44.96118091552805
9.419767907162866,46.34404693431837
9.423769507803122,45.96270653592099
9.427771108443377,45.741538593271386
9.431772709083633,46.09205625823111
9.43577430972389,45.226517643452354
9.439775910364146,46.413322678701775
9.443777511004402,45.78875871313613
9.447779111644659,45.72164410271325
9.451780712284915,45.731420417465024
9.455782312925171,47.14365035138442
9.459783913565426,46.36746541004058
9.463785514205682,47.54383609529449
9.467787114845938,46.60403023294842
9.471788715486195,46.11329370021449
9.475790316126451,46.503834563155344
9.479791916766708,47.77520848549771
9.483793517406964,47.174640665282745
9.487795118047218,47.073813768788106
9.491796718687475,47.523414173891524
9.495798319327731,47.78982345074811
9.499799919967987,48.1932372861987
9.503801520608244,48.45447145827946
9.5078031212485,47.64609905015055
9.511804721888756,47.25879801897674
9.515806322529013,47.81100412383677
9.519807923169267,48.24386754714321
9.523809523809524,47.72791356045854
9.52781112444978,47.827357828797936
9.531812725090036,48.57404141491131
9.535814325730293,48.47410880322377
9.539815926370549,48.611193689878064
9.543817527010805,48.311979837125456
9.54781912765106,48.672530949209296
9.551820728291316,48.42218941548978
9.555822328931573,49.42605014346663
9.559823929571829,49.59529021356432
9.563825530212085,48.25135527000842
9.567827130852342,48.806545860755634
9.571828731492598,48.619956575570285
9.575830332132854,49.140196358025634
9.579831932773109,49.52054305918412
9.583833533413365,48.934559136282026
9.587835134053622,49.29563691087049
9.591836734693878,49.35183795757895
9.595838335334134,50.05476427461597
9.59983993597439,50.08318026966175
9.603841536614647,49.78507972505088
9.607843137254902,50.3318616317346
9.611844737895158,50.06767552431325
9.615846338535414,50.3028134426195
9.61984793917567,51.37305291719222
9.623849539815927,51.30430309775226
9.627851140456183,50.082086860851994
9.63185274109644,51.24460718507519
9.635854341736694,51.333360720908324
9.63985594237695,50.451509618500154
9.643857543017207,51.5330656362718
9.647859143657463,51.990734437681056
9.65186074429772,50.75864323189927
9.655862344937976,50.95936625308023
9.659863945578232,52.0252046768003
9.663865546218489,51.75043150867101
9.667867146858743,51.98878490937
9.671868747499,51.98175668524416
9.675870348139256,52.105277107460964
9.679871948779512,51.34521129498429
9.683873549419769,52.63067494399075
9.687875150060025,52.79042971471925
9.691876750700281,52.189607247154356
9.695878351340536,52.3812806940831
9.699879951980792,51.736229992586054
9.703881552621048,52.85772309746882
9.707883153261305,52.98548319198523
9.711884753901561,52.7672638654236
9.715886354541817,53.45948648254324
9.719887955182074,52.82926651616738
9.72388955582233,53.3776476982093
9.727891156462585,52.68459581798864
9.731892757102841,53.281778186072145
9.735894357743097,53.305545802198175
9.739895958383354,53.604587330371515
9.74389755902361,53.406421484528245
9.747899159663866,53.62474074466668
9.751900760304123,54.202832608059616
9.755902360944377,53.67079814189785
9.759903961584634,53.18530157848233
9.76390556222489,54.962829951016275
9.767907162865146,54.87825028137829
9.771908763505403,53.64091388175135
9.775910364145659,54.73145723421136
9.779911964785915,54.23470953424475
9.78391356542617,54.71756897117376
9.787915166066426,54.83260009824789
9.791916766706683,54.66798040003344
9.795918367346939,54.493030699826534
9.799919967987195,54.63940457441914
9.803921568627452,54.626372415670815
9.807923169267708,54.768381616153924
9.811924769907964,55.25055836507618
9.815926370548219,55.026152117109085
9.819927971188475,55.82497192638589
9.823929571828732,56.327511301749205
9.827931172468988,55.39383185083902
9.831932773109244,55.90355825415379
9.8359343737495,56.13372274417447
9.839935974389757,56.21993153008154
9.843937575030012,56.12198362216345
9.847939175670268,56.55544754631564
9.851940776310524,56.5253552849589
9.85594237695078,55.765547558543325
9.859943977591037,56.919127619500344
9.863945578231293,57.02838804680826
9.86794717887155,56.30331420684495
9.871948779511806,56.80416176379078
9.87595038015206,57.22711325232934
9.879951980792317,56.881067444937415
9.883953581432573,57.62250803245754
9.88795518207283,58.36826833075318
9.891956782713086,56.8936699288774
9.895958383353342,56.69648865800026
9.899959983993599,57.63928479003273
9.903961584633853,57.94853716125298
9.90796318527411,57.57271838746881
9.911964785914366,58.51519218633344
9.915966386554622,57.21968321491986
9.919967987194878,58.335883031390736
9.923969587835135,57.78694362464748
9.927971188475391,59.050025378334375
9.931972789115648,59.287067931987394
9.935974389755902,58.00796659649772
9.939975990396158,58.21701112701102
9.943977591036415,59.022087977333065
9.947979191676671,58.49924194677992
9.951980792316927,58.7706231640893
9.955982392957184,58.90655211279995
9.95998399359744,58.03455744649081
9.963985594237695,59.08801763064187
9.967987194877951,58.850620817205474
9.971988795518207,59.04947657940994
9.975990396158464,60.118411728882606
9.97999199679872,58.868903831027204
9.983993597438976,60.004324601329884
9.987995198079233,59.558807815619545
9.991996798719487,59.658978376661395
9.995998399359744,60.294614860595445
10.0,60.17002564728444
